buf1_00002.tif: Q-Space Scan
Q (Inverse Nanometres)

       1002
 3.3657656E-03  0.0000000E+00
 1.0097297E-02  0.0000000E+00
 1.6828828E-02  0.0000000E+00
 2.3560358E-02  0.0000000E+00
 3.0291891E-02  0.0000000E+00
 3.7023421E-02  0.0000000E+00
 4.3754954E-02  0.0000000E+00
 5.0486483E-02  0.0000000E+00
 5.7218015E-02  0.0000000E+00
 6.3949548E-02  0.0000000E+00
 7.0681080E-02  0.0000000E+00
 7.7412605E-02  0.0000000E+00
 8.4144138E-02  0.0000000E+00
 9.0875670E-02  4.2311792E+03
 9.7607203E-02  3.8478054E+03
 1.0433874E-01  3.1849419E+03
 1.1107026E-01  2.5224746E+03
 1.1780179E-01  2.0118461E+03
 1.2453333E-01  1.6591080E+03
 1.3126485E-01  1.3630648E+03
 1.3799639E-01  1.1157607E+03
 1.4472792E-01  9.2491156E+02
 1.5145946E-01  7.8868365E+02
 1.5819098E-01  6.7539581E+02
 1.6492251E-01  5.8607245E+02
 1.7165405E-01  5.0855743E+02
 1.7838557E-01  4.5058530E+02
 1.8511711E-01  4.0707086E+02
 1.9184864E-01  3.7137650E+02
 1.9858016E-01  3.3949939E+02
 2.0531170E-01  3.0871707E+02
 2.1204323E-01  2.8642255E+02
 2.1877477E-01  2.6877310E+02
 2.2550629E-01  2.4816609E+02
 2.3223783E-01  2.3320905E+02
 2.3896936E-01  2.1868735E+02
 2.4570088E-01  2.0670222E+02
 2.5243241E-01  1.9570213E+02
 2.5916395E-01  1.8660432E+02
 2.6589549E-01  1.7797444E+02
 2.7262700E-01  1.7093768E+02
 2.7935854E-01  1.6363739E+02
 2.8609008E-01  1.5634972E+02
 2.9282162E-01  1.5256717E+02
 2.9955313E-01  1.4627908E+02
 3.0628467E-01  1.4126808E+02
 3.1301621E-01  1.3831688E+02
 3.1974772E-01  1.3298314E+02
 3.2647926E-01  1.3154308E+02
 3.3321080E-01  1.2740231E+02
 3.3994234E-01  1.2423766E+02
 3.4667385E-01  1.2206603E+02
 3.5340539E-01  1.1929005E+02
 3.6013693E-01  1.1671154E+02
 3.6686844E-01  1.1412257E+02
 3.7359998E-01  1.1356123E+02
 3.8033152E-01  1.1195779E+02
 3.8706303E-01  1.1126482E+02
 3.9379457E-01  1.0949499E+02
 4.0052611E-01  1.0885760E+02
 4.0725765E-01  1.0619170E+02
 4.1398916E-01  1.0481586E+02
 4.2072070E-01  1.0478919E+02
 4.2745224E-01  1.0357275E+02
 4.3418375E-01  1.0228505E+02
 4.4091529E-01  1.0159776E+02
 4.4764683E-01  1.0152724E+02
 4.5437834E-01  1.0151054E+02
 4.6110988E-01  9.9185631E+01
 4.6784142E-01  9.8018028E+01
 4.7457296E-01  9.7951584E+01
 4.8130447E-01  9.7440086E+01
 4.8803601E-01  9.7122299E+01
 4.9476755E-01  9.6368416E+01
 5.0149906E-01  9.6075027E+01
 5.0823063E-01  9.5501884E+01
 5.1496214E-01  9.6196625E+01
 5.2169365E-01  9.5084824E+01
 5.2842522E-01  9.4510017E+01
 5.3515673E-01  9.3361870E+01
 5.4188824E-01  9.2467842E+01
 5.4861981E-01  9.2639992E+01
 5.5535132E-01  9.3201302E+01
 5.6208283E-01  9.3026192E+01
 5.6881440E-01  9.2189476E+01
 5.7554591E-01  9.2425674E+01
 5.8227742E-01  9.1249908E+01
 5.8900899E-01  9.0903351E+01
 5.9574050E-01  9.0850082E+01
 6.0247201E-01  9.0704445E+01
 6.0920358E-01  9.0556702E+01
 6.1593509E-01  9.0622200E+01
 6.2266666E-01  8.9714172E+01
 6.2939817E-01  8.8991760E+01
 6.3612968E-01  8.9646164E+01
 6.4286125E-01  8.8628273E+01
 6.4959276E-01  8.7492493E+01
 6.5632427E-01  8.8007698E+01
 6.6305584E-01  8.7822296E+01
 6.6978735E-01  8.7291321E+01
 6.7651886E-01  8.6328262E+01
 6.8325043E-01  8.7675140E+01
 6.8998194E-01  8.7423309E+01
 6.9671345E-01  8.6763069E+01
 7.0344502E-01  8.5984596E+01
 7.1017653E-01  8.5729401E+01
 7.1690804E-01  8.6401817E+01
 7.2363961E-01  8.5903854E+01
 7.3037112E-01  8.5244331E+01
 7.3710263E-01  8.5438217E+01
 7.4383420E-01  8.4955620E+01
 7.5056571E-01  8.5008141E+01
 7.5729728E-01  8.4606079E+01
 7.6402879E-01  8.3674889E+01
 7.7076030E-01  8.3941536E+01
 7.7749187E-01  8.4125542E+01
 7.8422338E-01  8.3921188E+01
 7.9095489E-01  8.3858467E+01
 7.9768646E-01  8.3944298E+01
 8.0441797E-01  8.2585793E+01
 8.1114948E-01  8.3276588E+01
 8.1788105E-01  8.3594238E+01
 8.2461256E-01  8.3984093E+01
 8.3134407E-01  8.2277710E+01
 8.3807564E-01  8.2514832E+01
 8.4480715E-01  8.2124420E+01
 8.5153866E-01  8.2584145E+01
 8.5827023E-01  8.2255913E+01
 8.6500174E-01  8.1576126E+01
 8.7173331E-01  8.1878662E+01
 8.7846482E-01  8.2257744E+01
 8.8519633E-01  8.1604546E+01
 8.9192790E-01  8.0918533E+01
 8.9865941E-01  8.1197250E+01
 9.0539092E-01  8.1393402E+01
 9.1212249E-01  8.0789795E+01
 9.1885400E-01  8.0533653E+01
 9.2558551E-01  8.1133942E+01
 9.3231708E-01  8.0928810E+01
 9.3904859E-01  8.0380722E+01
 9.4578010E-01  8.0429253E+01
 9.5251167E-01  8.0655602E+01
 9.5924318E-01  7.9851746E+01
 9.6597469E-01  7.9691795E+01
 9.7270626E-01  7.9686234E+01
 9.7943777E-01  8.0016220E+01
 9.8616934E-01  7.9253456E+01
 9.9290085E-01  7.8909325E+01
 9.9963236E-01  7.9231415E+01
 1.0063639E+00  7.9169914E+01
 1.0130954E+00  7.8792068E+01
 1.0198270E+00  7.8511467E+01
 1.0265585E+00  7.9447731E+01
 1.0332900E+00  7.9366920E+01
 1.0400215E+00  7.8592224E+01
 1.0467530E+00  7.7389679E+01
 1.0534847E+00  7.7865570E+01
 1.0602162E+00  7.8447388E+01
 1.0669477E+00  7.7903252E+01
 1.0736792E+00  7.7835335E+01
 1.0804107E+00  7.7914299E+01
 1.0871422E+00  7.7855888E+01
 1.0938739E+00  7.7295319E+01
 1.1006054E+00  7.6753754E+01
 1.1073369E+00  7.6947800E+01
 1.1140684E+00  7.7768166E+01
 1.1207999E+00  7.7499313E+01
 1.1275314E+00  7.6651863E+01
 1.1342630E+00  7.6577827E+01
 1.1409945E+00  7.6908501E+01
 1.1477261E+00  7.6452171E+01
 1.1544576E+00  7.6419357E+01
 1.1611891E+00  7.6338593E+01
 1.1679206E+00  7.6295288E+01
 1.1746522E+00  7.6324005E+01
 1.1813837E+00  7.7344902E+01
 1.1881152E+00  7.7199409E+01
 1.1948467E+00  7.6836678E+01
 1.2015783E+00  7.7068459E+01
 1.2083099E+00  7.6480515E+01
 1.2150414E+00  7.6855751E+01
 1.2217729E+00  7.6757957E+01
 1.2285044E+00  7.7378990E+01
 1.2352359E+00  7.7093094E+01
 1.2419674E+00  7.6857681E+01
 1.2486991E+00  7.6961906E+01
 1.2554306E+00  7.7573959E+01
 1.2621621E+00  7.6634270E+01
 1.2688936E+00  7.6568214E+01
 1.2756251E+00  7.7308311E+01
 1.2823566E+00  7.6895226E+01
 1.2890882E+00  7.6337273E+01
 1.2958198E+00  7.5802284E+01
 1.3025513E+00  7.5668877E+01
 1.3092828E+00  7.5115021E+01
 1.3160143E+00  7.5376198E+01
 1.3227459E+00  7.5261787E+01
 1.3294774E+00  7.5460320E+01
 1.3362089E+00  7.5320839E+01
 1.3429404E+00  7.5041061E+01
 1.3496720E+00  7.4939240E+01
 1.3564035E+00  7.4899307E+01
 1.3631351E+00  7.4191284E+01
 1.3698666E+00  7.4396019E+01
 1.3765981E+00  7.5121178E+01
 1.3833296E+00  7.4627487E+01
 1.3900611E+00  7.4196136E+01
 1.3967927E+00  7.3819244E+01
 1.4035243E+00  7.4146790E+01
 1.4102558E+00  7.3690552E+01
 1.4169873E+00  7.3787781E+01
 1.4237188E+00  7.3990356E+01
 1.4304503E+00  7.3876617E+01
 1.4371819E+00  7.3679710E+01
 1.4439135E+00  7.3097687E+01
 1.4506450E+00  7.2606354E+01
 1.4573765E+00  7.2635384E+01
 1.4641080E+00  7.2662895E+01
 1.4708395E+00  7.2988533E+01
 1.4775711E+00  7.2800873E+01
 1.4843026E+00  7.2728203E+01
 1.4910342E+00  7.3382980E+01
 1.4977657E+00  7.2757904E+01
 1.5044972E+00  7.2243965E+01
 1.5112287E+00  7.2741325E+01
 1.5179603E+00  7.2306122E+01
 1.5246918E+00  7.2208778E+01
 1.5314233E+00  7.1891190E+01
 1.5381548E+00  7.1699654E+01
 1.5448864E+00  7.1401314E+01
 1.5516180E+00  7.1592888E+01
 1.5583495E+00  7.1721687E+01
 1.5650810E+00  7.1597328E+01
 1.5718125E+00  7.1539207E+01
 1.5785440E+00  7.1830086E+01
 1.5852755E+00  7.1783272E+01
 1.5920072E+00  7.1632309E+01
 1.5987387E+00  7.1232384E+01
 1.6054702E+00  7.1355026E+01
 1.6122017E+00  7.1504921E+01
 1.6189332E+00  7.0689880E+01
 1.6256647E+00  7.1106445E+01
 1.6323963E+00  7.1070244E+01
 1.6391279E+00  7.0769173E+01
 1.6458594E+00  7.0659248E+01
 1.6525909E+00  7.0687836E+01
 1.6593224E+00  7.0822182E+01
 1.6660540E+00  7.0521996E+01
 1.6727855E+00  7.0912285E+01
 1.6795170E+00  7.0289063E+01
 1.6862485E+00  7.0548378E+01
 1.6929801E+00  7.0381546E+01
 1.6997116E+00  6.9793839E+01
 1.7064432E+00  7.0245560E+01
 1.7131747E+00  7.0823479E+01
 1.7199062E+00  7.0264679E+01
 1.7266377E+00  6.9823654E+01
 1.7333692E+00  6.9892357E+01
 1.7401007E+00  6.9747139E+01
 1.7468324E+00  6.9403297E+01
 1.7535639E+00  6.9857285E+01
 1.7602954E+00  6.9951904E+01
 1.7670269E+00  6.9722534E+01
 1.7737584E+00  7.0079613E+01
 1.7804899E+00  6.9772316E+01
 1.7872216E+00  6.9770035E+01
 1.7939531E+00  6.9406502E+01
 1.8006846E+00  6.9224228E+01
 1.8074161E+00  6.8517212E+01
 1.8141476E+00  6.9517151E+01
 1.8208792E+00  6.9591072E+01
 1.8276107E+00  6.9186005E+01
 1.8343422E+00  6.9021736E+01
 1.8410738E+00  6.9308853E+01
 1.8478053E+00  6.9064796E+01
 1.8545368E+00  6.9321365E+01
 1.8612684E+00  6.9158501E+01
 1.8679999E+00  6.8825706E+01
 1.8747314E+00  6.8697678E+01
 1.8814629E+00  6.8660683E+01
 1.8881944E+00  6.8719666E+01
 1.8949260E+00  6.8508011E+01
 1.9016576E+00  6.8457802E+01
 1.9083891E+00  6.8500549E+01
 1.9151206E+00  6.8485588E+01
 1.9218521E+00  6.7894089E+01
 1.9285836E+00  6.7940086E+01
 1.9353153E+00  6.8184143E+01
 1.9420468E+00  6.8137985E+01
 1.9487783E+00  6.8051399E+01
 1.9555098E+00  6.7743492E+01
 1.9622413E+00  6.7810020E+01
 1.9689728E+00  6.7840240E+01
 1.9757044E+00  6.7827927E+01
 1.9824359E+00  6.7662216E+01
 1.9891675E+00  6.7532784E+01
 1.9958990E+00  6.7725304E+01
 2.0026305E+00  6.7678177E+01
 2.0093620E+00  6.7116318E+01
 2.0160935E+00  6.7681419E+01
 2.0228250E+00  6.7400711E+01
 2.0295565E+00  6.7539940E+01
 2.0362883E+00  6.7211716E+01
 2.0430198E+00  6.7277664E+01
 2.0497513E+00  6.7412758E+01
 2.0564828E+00  6.7071442E+01
 2.0632143E+00  6.7255356E+01
 2.0699458E+00  6.6967064E+01
 2.0766773E+00  6.7365860E+01
 2.0834088E+00  6.7024269E+01
 2.0901403E+00  6.6621986E+01
 2.0968719E+00  6.6992035E+01
 2.1036034E+00  6.7104057E+01
 2.1103351E+00  6.6856445E+01
 2.1170666E+00  6.6725807E+01
 2.1237981E+00  6.7062828E+01
 2.1305296E+00  6.6693596E+01
 2.1372612E+00  6.6512054E+01
 2.1439927E+00  6.6611839E+01
 2.1507242E+00  6.6701935E+01
 2.1574557E+00  6.6387070E+01
 2.1641872E+00  6.6418297E+01
 2.1709187E+00  6.6375244E+01
 2.1776502E+00  6.5942169E+01
 2.1843820E+00  6.6073265E+01
 2.1911135E+00  6.6413864E+01
 2.1978450E+00  6.6266640E+01
 2.2045765E+00  6.6297485E+01
 2.2113080E+00  6.6141769E+01
 2.2180395E+00  6.6152519E+01
 2.2247710E+00  6.5780121E+01
 2.2315025E+00  6.5667877E+01
 2.2382340E+00  6.6169563E+01
 2.2449656E+00  6.5982796E+01
 2.2516971E+00  6.5983719E+01
 2.2584286E+00  6.5717690E+01
 2.2651603E+00  6.5504868E+01
 2.2718918E+00  6.6088829E+01
 2.2786233E+00  6.5818268E+01
 2.2853549E+00  6.5560822E+01
 2.2920864E+00  6.5553276E+01
 2.2988179E+00  6.5769196E+01
 2.3055494E+00  6.5178658E+01
 2.3122809E+00  6.5135948E+01
 2.3190124E+00  6.5279991E+01
 2.3257439E+00  6.5019234E+01
 2.3324754E+00  6.4812973E+01
 2.3392072E+00  6.5181694E+01
 2.3459387E+00  6.4975693E+01
 2.3526702E+00  6.5114670E+01
 2.3594017E+00  6.5315887E+01
 2.3661332E+00  6.4719452E+01
 2.3728647E+00  6.4862465E+01
 2.3795962E+00  6.4588844E+01
 2.3863277E+00  6.4400192E+01
 2.3930593E+00  6.4697655E+01
 2.3997908E+00  6.4741142E+01
 2.4065223E+00  6.4620522E+01
 2.4132540E+00  6.4479660E+01
 2.4199855E+00  6.4590942E+01
 2.4267170E+00  6.4803314E+01
 2.4334486E+00  6.4551445E+01
 2.4401801E+00  6.4417709E+01
 2.4469116E+00  6.4326965E+01
 2.4536431E+00  6.4013840E+01
 2.4603746E+00  6.3970238E+01
 2.4671061E+00  6.4243271E+01
 2.4738376E+00  6.4179405E+01
 2.4805691E+00  6.4331276E+01
 2.4873006E+00  6.3969852E+01
 2.4940324E+00  6.3959435E+01
 2.5007639E+00  6.3898411E+01
 2.5074954E+00  6.3895264E+01
 2.5142269E+00  6.3721180E+01
 2.5209584E+00  6.4103569E+01
 2.5276899E+00  6.4251976E+01
 2.5344214E+00  6.3591419E+01
 2.5411530E+00  6.3540371E+01
 2.5478845E+00  6.3493198E+01
 2.5546160E+00  6.3331696E+01
 2.5613475E+00  6.3510357E+01
 2.5680792E+00  6.3459293E+01
 2.5748107E+00  6.3345177E+01
 2.5815423E+00  6.3222855E+01
 2.5882738E+00  6.3330082E+01
 2.5950053E+00  6.3327602E+01
 2.6017368E+00  6.3079437E+01
 2.6084683E+00  6.3155838E+01
 2.6151998E+00  6.3212437E+01
 2.6219313E+00  6.3338234E+01
 2.6286628E+00  6.3355839E+01
 2.6353943E+00  6.3228813E+01
 2.6421258E+00  6.3491711E+01
 2.6488576E+00  6.3226795E+01
 2.6555891E+00  6.3368256E+01
 2.6623206E+00  6.3594639E+01
 2.6690521E+00  6.3295403E+01
 2.6757836E+00  6.3168354E+01
 2.6825151E+00  6.3245327E+01
 2.6892467E+00  6.3118351E+01
 2.6959782E+00  6.2801273E+01
 2.7027097E+00  6.3324181E+01
 2.7094412E+00  6.2836689E+01
 2.7161727E+00  6.2677628E+01
 2.7229044E+00  6.2907299E+01
 2.7296360E+00  6.2669186E+01
 2.7363675E+00  6.2477680E+01
 2.7430990E+00  6.2463512E+01
 2.7498305E+00  6.1969002E+01
 2.7565620E+00  6.2024883E+01
 2.7632935E+00  6.1662796E+01
 2.7700250E+00  6.2023598E+01
 2.7767565E+00  6.1902908E+01
 2.7834880E+00  6.2025845E+01
 2.7902195E+00  6.1683502E+01
 2.7969513E+00  6.1391201E+01
 2.8036828E+00  6.0994423E+01
 2.8104143E+00  6.1143112E+01
 2.8171458E+00  6.1106506E+01
 2.8238773E+00  6.1589848E+01
 2.8306088E+00  6.1208218E+01
 2.8373404E+00  6.0768059E+01
 2.8440719E+00  6.1007763E+01
 2.8508034E+00  6.0847454E+01
 2.8575349E+00  6.0867886E+01
 2.8642664E+00  6.0542549E+01
 2.8709979E+00  6.0540600E+01
 2.8777297E+00  6.0421448E+01
 2.8844612E+00  6.0859917E+01
 2.8911927E+00  6.0324654E+01
 2.8979242E+00  6.0502205E+01
 2.9046557E+00  6.0347511E+01
 2.9113872E+00  6.0425880E+01
 2.9181187E+00  6.0226433E+01
 2.9248502E+00  6.0055531E+01
 2.9315817E+00  5.9851162E+01
 2.9383132E+00  5.9920811E+01
 2.9450448E+00  6.0175999E+01
 2.9517765E+00  6.0153652E+01
 2.9585080E+00  5.9793476E+01
 2.9652395E+00  6.0038662E+01
 2.9719710E+00  5.9943596E+01
 2.9787025E+00  5.9690212E+01
 2.9854341E+00  5.9234848E+01
 2.9921656E+00  5.9737480E+01
 2.9988971E+00  6.0033699E+01
 3.0056286E+00  5.9595093E+01
 3.0123601E+00  5.9230030E+01
 3.0190916E+00  5.9549641E+01
 3.0258234E+00  5.9372822E+01
 3.0325549E+00  5.9083786E+01
 3.0392864E+00  5.9199200E+01
 3.0460179E+00  5.9405220E+01
 3.0527494E+00  5.9238579E+01
 3.0594809E+00  5.9108501E+01
 3.0662124E+00  5.8751202E+01
 3.0729439E+00  5.9132809E+01
 3.0796754E+00  5.8778755E+01
 3.0864069E+00  5.8664165E+01
 3.0931385E+00  5.8749828E+01
 3.0998700E+00  5.8594032E+01
 3.1066017E+00  5.8651573E+01
 3.1133332E+00  5.8775730E+01
 3.1200647E+00  5.8732834E+01
 3.1267962E+00  5.8569714E+01
 3.1335278E+00  5.7966278E+01
 3.1402593E+00  5.7849365E+01
 3.1469908E+00  5.8329529E+01
 3.1537223E+00  5.8317566E+01
 3.1604538E+00  5.8074162E+01
 3.1671853E+00  5.8059326E+01
 3.1739168E+00  5.7828903E+01
 3.1806486E+00  5.8036797E+01
 3.1873801E+00  5.7934929E+01
 3.1941116E+00  5.8077808E+01
 3.2008431E+00  5.8097572E+01
 3.2075746E+00  5.7917519E+01
 3.2143061E+00  5.8125355E+01
 3.2210376E+00  5.7736904E+01
 3.2277691E+00  5.7733833E+01
 3.2345006E+00  5.7743637E+01
 3.2412322E+00  5.7639076E+01
 3.2479637E+00  5.7742119E+01
 3.2546952E+00  5.7521561E+01
 3.2614269E+00  5.7374332E+01
 3.2681584E+00  5.7102158E+01
 3.2748899E+00  5.7303761E+01
 3.2816215E+00  5.7264423E+01
 3.2883530E+00  5.7404556E+01
 3.2950845E+00  5.7402859E+01
 3.3018160E+00  5.7142563E+01
 3.3085475E+00  5.6896973E+01
 3.3152790E+00  5.6578152E+01
 3.3220105E+00  5.6896389E+01
 3.3287420E+00  5.6998066E+01
 3.3354738E+00  5.6813015E+01
 3.3422053E+00  5.6877758E+01
 3.3489368E+00  5.6933712E+01
 3.3556683E+00  5.6984211E+01
 3.3623998E+00  5.6885029E+01
 3.3691313E+00  5.6531174E+01
 3.3758628E+00  5.6374256E+01
 3.3825943E+00  5.6467667E+01
 3.3893259E+00  5.6336224E+01
 3.3960574E+00  5.6665112E+01
 3.4027889E+00  5.6410435E+01
 3.4095206E+00  5.6107517E+01
 3.4162521E+00  5.6212444E+01
 3.4229836E+00  5.6251011E+01
 3.4297152E+00  5.6120762E+01
 3.4364467E+00  5.5879978E+01
 3.4431782E+00  5.6005081E+01
 3.4499097E+00  5.5832825E+01
 3.4566412E+00  5.5918903E+01
 3.4633727E+00  5.6053776E+01
 3.4701042E+00  5.6100994E+01
 3.4768357E+00  5.6221958E+01
 3.4835672E+00  5.5814686E+01
 3.4902990E+00  5.5810852E+01
 3.4970305E+00  5.5696983E+01
 3.5037620E+00  5.5636147E+01
 3.5104935E+00  5.5965015E+01
 3.5172250E+00  5.5907089E+01
 3.5239565E+00  5.5634808E+01
 3.5306880E+00  5.5181480E+01
 3.5374196E+00  5.5642529E+01
 3.5441511E+00  5.5519753E+01
 3.5508826E+00  5.5577194E+01
 3.5576141E+00  5.5674793E+01
 3.5643458E+00  5.5521152E+01
 3.5710773E+00  5.5379547E+01
 3.5778089E+00  5.5523468E+01
 3.5845404E+00  5.4994244E+01
 3.5912719E+00  5.5014317E+01
 3.5980034E+00  5.4861382E+01
 3.6047349E+00  5.4934868E+01
 3.6114664E+00  5.4778053E+01
 3.6181979E+00  5.5107140E+01
 3.6249294E+00  5.4872887E+01
 3.6316609E+00  5.4802986E+01
 3.6383927E+00  5.4630024E+01
 3.6451242E+00  5.4838600E+01
 3.6518557E+00  5.4860714E+01
 3.6585872E+00  5.4562698E+01
 3.6653187E+00  5.4568390E+01
 3.6720502E+00  5.4326931E+01
 3.6787817E+00  5.4482723E+01
 3.6855133E+00  5.4494671E+01
 3.6922448E+00  5.4260258E+01
 3.6989763E+00  5.4388390E+01
 3.7057078E+00  5.4212719E+01
 3.7124393E+00  5.4010464E+01
 3.7191710E+00  5.4158215E+01
 3.7259026E+00  5.3993324E+01
 3.7326341E+00  5.3945335E+01
 3.7393656E+00  5.3888557E+01
 3.7460971E+00  5.3934151E+01
 3.7528286E+00  5.4019566E+01
 3.7595601E+00  5.4129738E+01
 3.7662916E+00  5.3941235E+01
 3.7730231E+00  5.3872803E+01
 3.7797546E+00  5.3705692E+01
 3.7864861E+00  5.3876743E+01
 3.7932179E+00  5.3695244E+01
 3.7999494E+00  5.3894470E+01
 3.8066809E+00  5.3746967E+01
 3.8134124E+00  5.3598225E+01
 3.8201439E+00  5.3671467E+01
 3.8268754E+00  5.3893112E+01
 3.8336070E+00  5.3413265E+01
 3.8403385E+00  5.3417233E+01
 3.8470700E+00  5.3525238E+01
 3.8538015E+00  5.3382645E+01
 3.8605330E+00  5.3378193E+01
 3.8672645E+00  5.3344814E+01
 3.8739963E+00  5.3355083E+01
 3.8807278E+00  5.3340553E+01
 3.8874593E+00  5.3224228E+01
 3.8941908E+00  5.3020737E+01
 3.9009223E+00  5.2960201E+01
 3.9076538E+00  5.3131046E+01
 3.9143853E+00  5.2991299E+01
 3.9211168E+00  5.3085201E+01
 3.9278483E+00  5.2867130E+01
 3.9345798E+00  5.2966389E+01
 3.9413114E+00  5.2688633E+01
 3.9480431E+00  5.2577229E+01
 3.9547746E+00  5.2635426E+01
 3.9615061E+00  5.2495663E+01
 3.9682376E+00  5.2521984E+01
 3.9749691E+00  5.2692940E+01
 3.9817007E+00  5.2522736E+01
 3.9884322E+00  5.2611538E+01
 3.9951637E+00  5.2453930E+01
 4.0018954E+00  5.2438496E+01
 4.0086269E+00  5.2409603E+01
 4.0153584E+00  5.2327682E+01
 4.0220900E+00  5.2206497E+01
 4.0288215E+00  5.2248928E+01
 4.0355530E+00  5.2547634E+01
 4.0422845E+00  5.2088474E+01
 4.0490160E+00  5.2475567E+01
 4.0557475E+00  5.2191124E+01
 4.0624790E+00  5.2170803E+01
 4.0692105E+00  5.1824162E+01
 4.0759420E+00  5.1768051E+01
 4.0826735E+00  5.1840343E+01
 4.0894051E+00  5.1527721E+01
 4.0961366E+00  5.1431389E+01
 4.1028681E+00  5.1563892E+01
 4.1095996E+00  5.1308067E+01
 4.1163311E+00  5.0944714E+01
 4.1230626E+00  5.1257229E+01
 4.1297941E+00  5.1165295E+01
 4.1365261E+00  5.1347584E+01
 4.1432576E+00  5.1498920E+01
 4.1499891E+00  5.1337601E+01
 4.1567206E+00  5.1194542E+01
 4.1634521E+00  5.1337517E+01
 4.1701837E+00  5.1243336E+01
 4.1769152E+00  5.1180843E+01
 4.1836467E+00  5.1130615E+01
 4.1903782E+00  5.1270767E+01
 4.1971097E+00  5.1360916E+01
 4.2038412E+00  5.1337772E+01
 4.2105727E+00  5.0990124E+01
 4.2173042E+00  5.1121284E+01
 4.2240357E+00  5.1292545E+01
 4.2307673E+00  5.0961758E+01
 4.2374988E+00  5.0939125E+01
 4.2442303E+00  5.1089008E+01
 4.2509618E+00  5.0746407E+01
 4.2576933E+00  5.0675190E+01
 4.2644248E+00  5.0625992E+01
 4.2711563E+00  5.0586567E+01
 4.2778878E+00  5.1002670E+01
 4.2846193E+00  5.0952312E+01
 4.2913513E+00  5.0891541E+01
 4.2980828E+00  5.0592148E+01
 4.3048143E+00  5.0503407E+01
 4.3115458E+00  5.0427040E+01
 4.3182774E+00  5.0610687E+01
 4.3250089E+00  5.1031418E+01
 4.3317404E+00  5.0481522E+01
 4.3384719E+00  5.0577969E+01
 4.3452034E+00  5.0516026E+01
 4.3519349E+00  5.0532787E+01
 4.3586664E+00  5.0773525E+01
 4.3653979E+00  5.0726635E+01
 4.3721294E+00  5.0783997E+01
 4.3788610E+00  5.0397133E+01
 4.3855925E+00  5.0479164E+01
 4.3923240E+00  5.0571140E+01
 4.3990555E+00  5.0252445E+01
 4.4057870E+00  5.0235481E+01
 4.4125185E+00  5.0348724E+01
 4.4192500E+00  5.0396450E+01
 4.4259815E+00  5.0577610E+01
 4.4327130E+00  5.0223560E+01
 4.4394445E+00  5.0426762E+01
 4.4461765E+00  5.0314030E+01
 4.4529080E+00  5.0246994E+01
 4.4596395E+00  5.0511143E+01
 4.4663711E+00  5.0324863E+01
 4.4731026E+00  5.0223034E+01
 4.4798341E+00  5.0418148E+01
 4.4865656E+00  5.0246864E+01
 4.4932971E+00  5.0333786E+01
 4.5000286E+00  5.0391159E+01
 4.5067601E+00  5.0573017E+01
 4.5134916E+00  5.0386311E+01
 4.5202231E+00  4.9991238E+01
 4.5269547E+00  4.9875816E+01
 4.5336862E+00  4.9940868E+01
 4.5404177E+00  4.9788937E+01
 4.5471492E+00  4.9725861E+01
 4.5538807E+00  4.9916271E+01
 4.5606122E+00  5.0035553E+01
 4.5673437E+00  5.0042709E+01
 4.5740752E+00  4.9794334E+01
 4.5808067E+00  4.9811264E+01
 4.5875382E+00  4.9690842E+01
 4.5942698E+00  4.9872726E+01
 4.6010017E+00  4.9690464E+01
 4.6077332E+00  4.9546700E+01
 4.6144648E+00  4.9667156E+01
 4.6211963E+00  4.9833176E+01
 4.6279278E+00  4.9949375E+01
 4.6346593E+00  4.9743198E+01
 4.6413908E+00  4.9872208E+01
 4.6481223E+00  4.9873306E+01
 4.6548538E+00  4.9662525E+01
 4.6615853E+00  4.9703007E+01
 4.6683168E+00  4.9792057E+01
 4.6750484E+00  4.9922539E+01
 4.6817799E+00  5.0037739E+01
 4.6885114E+00  4.9779053E+01
 4.6952429E+00  4.9701744E+01
 4.7019744E+00  4.9229576E+01
 4.7087059E+00  4.9172115E+01
 4.7154374E+00  4.9426151E+01
 4.7221689E+00  4.9566906E+01
 4.7289004E+00  4.9530228E+01
 4.7356319E+00  4.9249855E+01
 4.7423635E+00  4.9232498E+01
 4.7490954E+00  4.9481293E+01
 4.7558270E+00  4.9298416E+01
 4.7625585E+00  4.9172581E+01
 4.7692900E+00  4.9128826E+01
 4.7760215E+00  4.9141232E+01
 4.7827530E+00  4.9142380E+01
 4.7894845E+00  4.9334366E+01
 4.7962160E+00  4.8907803E+01
 4.8029475E+00  4.9190578E+01
 4.8096790E+00  4.8970592E+01
 4.8164105E+00  4.8803547E+01
 4.8231421E+00  4.8588882E+01
 4.8298736E+00  4.8790245E+01
 4.8366051E+00  4.8785561E+01
 4.8433366E+00  4.8675926E+01
 4.8500681E+00  4.8507080E+01
 4.8567996E+00  4.8396133E+01
 4.8635311E+00  4.8263924E+01
 4.8702626E+00  4.8469364E+01
 4.8769941E+00  4.8660133E+01
 4.8837256E+00  4.8561291E+01
 4.8904572E+00  4.8329670E+01
 4.8971887E+00  4.8521770E+01
 4.9039207E+00  4.8481239E+01
 4.9106522E+00  4.8336655E+01
 4.9173837E+00  4.8490547E+01
 4.9241152E+00  4.8666241E+01
 4.9308467E+00  4.8134388E+01
 4.9375782E+00  4.8235508E+01
 4.9443097E+00  4.8002590E+01
 4.9510412E+00  4.8227600E+01
 4.9577727E+00  4.8330460E+01
 4.9645042E+00  4.8241028E+01
 4.9712358E+00  4.7896347E+01
 4.9779673E+00  4.8248234E+01
 4.9846988E+00  4.8512798E+01
 4.9914303E+00  4.8412128E+01
 4.9981618E+00  4.8333023E+01
 5.0048933E+00  4.8231594E+01
 5.0116248E+00  4.8057590E+01
 5.0183563E+00  4.8018696E+01
 5.0250878E+00  4.7855831E+01
 5.0318193E+00  4.7921764E+01
 5.0385509E+00  4.7919666E+01
 5.0452824E+00  4.7883968E+01
 5.0520139E+00  4.7790665E+01
 5.0587459E+00  4.8007851E+01
 5.0654774E+00  4.7826321E+01
 5.0722089E+00  4.7804241E+01
 5.0789404E+00  4.7776974E+01
 5.0856719E+00  4.7781330E+01
 5.0924034E+00  4.8062656E+01
 5.0991349E+00  4.7708313E+01
 5.1058664E+00  4.7806782E+01
 5.1125979E+00  4.7808445E+01
 5.1193295E+00  4.7654949E+01
 5.1260610E+00  4.7579243E+01
 5.1327925E+00  4.7660290E+01
 5.1395240E+00  4.7522793E+01
 5.1462555E+00  4.7444851E+01
 5.1529870E+00  4.7245529E+01
 5.1597185E+00  4.7160419E+01
 5.1664500E+00  4.7346107E+01
 5.1731815E+00  4.7398773E+01
 5.1799130E+00  4.7295784E+01
 5.1866446E+00  4.7156239E+01
 5.1933761E+00  4.7415985E+01
 5.2001076E+00  4.7254417E+01
 5.2068391E+00  4.7265842E+01
 5.2135711E+00  4.7195080E+01
 5.2203026E+00  4.7217590E+01
 5.2270341E+00  4.7290283E+01
 5.2337656E+00  4.7381947E+01
 5.2404971E+00  4.7292183E+01
 5.2472286E+00  4.7141460E+01
 5.2539601E+00  4.7201969E+01
 5.2606916E+00  4.7137688E+01
 5.2674232E+00  4.7104256E+01
 5.2741547E+00  4.7058395E+01
 5.2808862E+00  4.6998638E+01
 5.2876177E+00  4.7168892E+01
 5.2943492E+00  4.7301052E+01
 5.3010807E+00  4.6884277E+01
 5.3078122E+00  4.6658848E+01
 5.3145437E+00  4.6867626E+01
 5.3212752E+00  4.7024433E+01
 5.3280067E+00  4.6654362E+01
 5.3347383E+00  4.6903214E+01
 5.3414698E+00  4.6861931E+01
 5.3482013E+00  4.6954151E+01
 5.3549328E+00  4.6966785E+01
 5.3616648E+00  4.6794235E+01
 5.3683963E+00  4.6544838E+01
 5.3751278E+00  4.6749340E+01
 5.3818593E+00  4.6816177E+01
 5.3885908E+00  4.6547680E+01
 5.3953223E+00  4.6284618E+01
 5.4020538E+00  4.6410244E+01
 5.4087853E+00  4.6302319E+01
 5.4155169E+00  4.6536682E+01
 5.4222484E+00  4.6425720E+01
 5.4289799E+00  4.6766556E+01
 5.4357114E+00  4.6847301E+01
 5.4424429E+00  4.6536709E+01
 5.4491744E+00  4.6412586E+01
 5.4559059E+00  4.6340290E+01
 5.4626374E+00  4.6346336E+01
 5.4693689E+00  4.6009418E+01
 5.4761004E+00  4.6070045E+01
 5.4828320E+00  4.6163639E+01
 5.4895635E+00  4.6031143E+01
 5.4962950E+00  4.5742935E+01
 5.5030265E+00  4.6017277E+01
 5.5097580E+00  4.6052799E+01
 5.5164900E+00  4.5812824E+01
 5.5232215E+00  4.5849888E+01
 5.5299530E+00  4.5648540E+01
 5.5366845E+00  4.5539658E+01
 5.5434160E+00  4.5835094E+01
 5.5501475E+00  4.5744400E+01
 5.5568790E+00  4.5731976E+01
 5.5636106E+00  4.5463181E+01
 5.5703421E+00  4.5747112E+01
 5.5770736E+00  4.5235657E+01
 5.5838051E+00  4.5213169E+01
 5.5905366E+00  4.5282768E+01
 5.5972681E+00  4.5474136E+01
 5.6039996E+00  4.5638878E+01
 5.6107311E+00  4.5214100E+01
 5.6174626E+00  4.5208431E+01
 5.6241941E+00  4.4800186E+01
 5.6309257E+00  4.5080517E+01
 5.6376572E+00  4.5413559E+01
 5.6443887E+00  4.5224773E+01
 5.6511202E+00  4.4899384E+01
 5.6578517E+00  4.4802402E+01
 5.6645832E+00  4.4774433E+01
 5.6713152E+00  4.4991287E+01
 5.6780467E+00  4.4819382E+01
 5.6847782E+00  4.4878555E+01
 5.6915097E+00  4.4837147E+01
 5.6982412E+00  4.4170090E+01
 5.7049727E+00  4.4271633E+01
 5.7117043E+00  4.3981918E+01
 5.7184358E+00  4.4264294E+01
 5.7251673E+00  4.4314194E+01
 5.7318988E+00  4.4061264E+01
 5.7386303E+00  4.4106167E+01
 5.7453618E+00  4.3684376E+01
 5.7520933E+00  4.3696079E+01
 5.7588248E+00  4.3615868E+01
 5.7655563E+00  4.3382011E+01
 5.7722878E+00  4.3576416E+01
 5.7790194E+00  4.3539688E+01
 5.7857509E+00  4.3383747E+01
 5.7924824E+00  4.3226105E+01
 5.7992139E+00  4.3101456E+01
 5.8059454E+00  4.2484039E+01
 5.8126769E+00  4.2509491E+01
 5.8194084E+00  4.2487984E+01
 5.8261404E+00  4.2572926E+01
 5.8328719E+00  4.2623043E+01
 5.8396034E+00  4.2471882E+01
 5.8463349E+00  4.1911564E+01
 5.8530664E+00  4.1889385E+01
 5.8597980E+00  4.2091980E+01
 5.8665295E+00  4.2285797E+01
 5.8732610E+00  4.1861195E+01
 5.8799925E+00  4.1632103E+01
 5.8867240E+00  4.1713009E+01
 5.8934555E+00  4.1828739E+01
 5.9001870E+00  4.1908470E+01
 5.9069185E+00  4.1515697E+01
 5.9136500E+00  4.1548622E+01
 5.9203815E+00  4.0621082E+01
 5.9271131E+00  4.0671829E+01
 5.9338446E+00  4.0912811E+01
 5.9405761E+00  4.0837025E+01
 5.9473076E+00  4.0540794E+01
 5.9540391E+00  4.0269810E+01
 5.9607706E+00  4.0578243E+01
 5.9675021E+00  4.0630978E+01
 5.9742341E+00  4.0144814E+01
 5.9809656E+00  3.9792370E+01
 5.9876971E+00  3.9407841E+01
 5.9944286E+00  3.9003922E+01
 6.0011601E+00  3.9407982E+01
 6.0078917E+00  3.9664223E+01
 6.0146232E+00  3.9830708E+01
 6.0213547E+00  3.9487526E+01
 6.0280862E+00  3.8814133E+01
 6.0348177E+00  3.8763130E+01
 6.0415492E+00  3.9465519E+01
 6.0482807E+00  3.8460152E+01
 6.0550122E+00  3.8462009E+01
 6.0617437E+00  3.8528221E+01
 6.0684752E+00  3.8105499E+01
 6.0752068E+00  3.7611012E+01
 6.0819383E+00  3.8183449E+01
 6.0886698E+00  3.8091118E+01
 6.0954013E+00  3.8077633E+01
 6.1021328E+00  3.7540142E+01
 6.1088643E+00  3.7429214E+01
 6.1155958E+00  3.6918777E+01
 6.1223273E+00  3.7344959E+01
 6.1290593E+00  3.7366776E+01
 6.1357908E+00  3.7154987E+01
 6.1425223E+00  3.6967873E+01
 6.1492538E+00  3.6782681E+01
 6.1559854E+00  3.6705505E+01
 6.1627169E+00  3.6771233E+01
 6.1694484E+00  3.6443588E+01
 6.1761799E+00  3.6223408E+01
 6.1829114E+00  3.6501568E+01
 6.1896429E+00  3.6514248E+01
 6.1963744E+00  3.5502796E+01
 6.2031059E+00  3.5435001E+01
 6.2098374E+00  3.5955624E+01
 6.2165689E+00  3.5569489E+01
 6.2233005E+00  3.5672005E+01
 6.2300320E+00  3.5730083E+01
 6.2367635E+00  3.5452881E+01
 6.2434950E+00  3.4800938E+01
 6.2502265E+00  3.4818970E+01
 6.2569580E+00  3.5397297E+01
 6.2636895E+00  3.5689037E+01
 6.2704210E+00  3.5226727E+01
 6.2771525E+00  3.5027878E+01
 6.2838845E+00  3.4690502E+01
 6.2906160E+00  3.4099747E+01
 6.2973475E+00  3.4596004E+01
 6.3040791E+00  3.4253204E+01
 6.3108106E+00  3.3780910E+01
 6.3175421E+00  3.3271984E+01
 6.3242736E+00  3.3610786E+01
 6.3310051E+00  3.3708618E+01
 6.3377366E+00  3.3938271E+01
 6.3444681E+00  3.3380905E+01
 6.3511996E+00  3.2875076E+01
 6.3579311E+00  3.2940788E+01
 6.3646626E+00  3.3681469E+01
 6.3713942E+00  3.3510540E+01
 6.3781257E+00  3.2426826E+01
 6.3848572E+00  3.2893364E+01
 6.3915887E+00  3.1979723E+01
 6.3983202E+00  3.1798349E+01
 6.4050517E+00  3.2575478E+01
 6.4117832E+00  3.2361298E+01
 6.4185147E+00  3.2063747E+01
 6.4252462E+00  3.2079659E+01
 6.4319777E+00  3.2031002E+01
 6.4387097E+00  3.2066273E+01
 6.4454412E+00  3.1196115E+01
 6.4521728E+00  3.1387310E+01
 6.4589043E+00  3.2207508E+01
 6.4656358E+00  3.3503460E+01
 6.4723673E+00  3.1570646E+01
 6.4790988E+00  3.5886734E+01
 6.4858303E+00  0.0000000E+00
 6.4925618E+00  0.0000000E+00
 6.4992933E+00  0.0000000E+00
 6.5060248E+00  0.0000000E+00
 6.5127563E+00  0.0000000E+00
 6.5194879E+00  0.0000000E+00
 6.5262194E+00  0.0000000E+00
 6.5329509E+00  0.0000000E+00
 6.5396824E+00  0.0000000E+00
 6.5464139E+00  0.0000000E+00
 6.5531454E+00  0.0000000E+00
 6.5598769E+00  0.0000000E+00
 6.5666084E+00  0.0000000E+00
 6.5733399E+00  0.0000000E+00
 6.5800714E+00  0.0000000E+00
 6.5868034E+00  0.0000000E+00
 6.5935349E+00  0.0000000E+00
 6.6002665E+00  0.0000000E+00
 6.6069980E+00  0.0000000E+00
 6.6137295E+00  0.0000000E+00
 6.6204610E+00  0.0000000E+00
 6.6271925E+00  0.0000000E+00
 6.6339240E+00  0.0000000E+00
 6.6406555E+00  0.0000000E+00
 6.6473870E+00  0.0000000E+00
 6.6541185E+00  0.0000000E+00
 6.6608500E+00  0.0000000E+00
 6.6675816E+00  0.0000000E+00
 6.6743131E+00  0.0000000E+00
 6.6810446E+00  0.0000000E+00
 6.6877761E+00  0.0000000E+00
 6.6945076E+00  0.0000000E+00
 6.7012391E+00  0.0000000E+00
 6.7079706E+00  0.0000000E+00
 6.7147021E+00  0.0000000E+00
 6.7214336E+00  0.0000000E+00
 6.7281651E+00  0.0000000E+00
 6.7348967E+00  0.0000000E+00
 6.7416286E+00  0.0000000E+00
