buf1_00001.tif: Q-Space Scan
Q (Inverse Nanometres)

       1002
 3.3657656E-03  0.0000000E+00
 1.0097297E-02  0.0000000E+00
 1.6828828E-02  0.0000000E+00
 2.3560358E-02  0.0000000E+00
 3.0291891E-02  0.0000000E+00
 3.7023421E-02  0.0000000E+00
 4.3754954E-02  0.0000000E+00
 5.0486483E-02  0.0000000E+00
 5.7218015E-02  0.0000000E+00
 6.3949548E-02  0.0000000E+00
 7.0681080E-02  0.0000000E+00
 7.7412605E-02  0.0000000E+00
 8.4144138E-02  0.0000000E+00
 9.0875670E-02  4.2340034E+03
 9.7607203E-02  3.8651033E+03
 1.0433874E-01  3.1847644E+03
 1.1107026E-01  2.5234766E+03
 1.1780179E-01  2.0213655E+03
 1.2453333E-01  1.6427709E+03
 1.3126485E-01  1.3633832E+03
 1.3799639E-01  1.1172048E+03
 1.4472792E-01  9.2227124E+02
 1.5145946E-01  7.9233020E+02
 1.5819098E-01  6.7493463E+02
 1.6492251E-01  5.8620099E+02
 1.7165405E-01  5.1311304E+02
 1.7838557E-01  4.6034219E+02
 1.8511711E-01  4.1210986E+02
 1.9184864E-01  3.6879477E+02
 1.9858016E-01  3.4196429E+02
 2.0531170E-01  3.0993982E+02
 2.1204323E-01  2.9058154E+02
 2.1877477E-01  2.6793210E+02
 2.2550629E-01  2.4970854E+02
 2.3223783E-01  2.3509776E+02
 2.3896936E-01  2.2050890E+02
 2.4570088E-01  2.0909818E+02
 2.5243241E-01  1.9649283E+02
 2.5916395E-01  1.8382684E+02
 2.6589549E-01  1.7706068E+02
 2.7262700E-01  1.6925014E+02
 2.7935854E-01  1.6284961E+02
 2.8609008E-01  1.5752606E+02
 2.9282162E-01  1.5121378E+02
 2.9955313E-01  1.4743532E+02
 3.0628467E-01  1.4024588E+02
 3.1301621E-01  1.3773740E+02
 3.1974772E-01  1.3318057E+02
 3.2647926E-01  1.3123196E+02
 3.3321080E-01  1.2766810E+02
 3.3994234E-01  1.2416451E+02
 3.4667385E-01  1.2154471E+02
 3.5340539E-01  1.1934192E+02
 3.6013693E-01  1.1646573E+02
 3.6686844E-01  1.1633127E+02
 3.7359998E-01  1.1404854E+02
 3.8033152E-01  1.1189754E+02
 3.8706303E-01  1.1075020E+02
 3.9379457E-01  1.0787489E+02
 4.0052611E-01  1.0753037E+02
 4.0725765E-01  1.0714545E+02
 4.1398916E-01  1.0725427E+02
 4.2072070E-01  1.0524711E+02
 4.2745224E-01  1.0290382E+02
 4.3418375E-01  1.0181145E+02
 4.4091529E-01  1.0200992E+02
 4.4764683E-01  1.0140969E+02
 4.5437834E-01  1.0062024E+02
 4.6110988E-01  9.9824509E+01
 4.6784142E-01  9.9306877E+01
 4.7457296E-01  9.8341110E+01
 4.8130447E-01  9.7870186E+01
 4.8803601E-01  9.7771446E+01
 4.9476755E-01  9.5998680E+01
 5.0149906E-01  9.5171921E+01
 5.0823063E-01  9.4775993E+01
 5.1496214E-01  9.4855232E+01
 5.2169365E-01  9.4892838E+01
 5.2842522E-01  9.4522499E+01
 5.3515673E-01  9.3776741E+01
 5.4188824E-01  9.3177444E+01
 5.4861981E-01  9.2490883E+01
 5.5535132E-01  9.2765686E+01
 5.6208283E-01  9.2496735E+01
 5.6881440E-01  9.2265358E+01
 5.7554591E-01  9.1819099E+01
 5.8227742E-01  9.2384834E+01
 5.8900899E-01  9.2419167E+01
 5.9574050E-01  9.1008255E+01
 6.0247201E-01  9.0270508E+01
 6.0920358E-01  8.9815147E+01
 6.1593509E-01  8.9664528E+01
 6.2266666E-01  9.0003914E+01
 6.2939817E-01  8.9711044E+01
 6.3612968E-01  8.9175140E+01
 6.4286125E-01  8.8418251E+01
 6.4959276E-01  8.9024292E+01
 6.5632427E-01  8.8622467E+01
 6.6305584E-01  8.7531387E+01
 6.6978735E-01  8.6542778E+01
 6.7651886E-01  8.7560272E+01
 6.8325043E-01  8.7859642E+01
 6.8998194E-01  8.7165596E+01
 6.9671345E-01  8.6905998E+01
 7.0344502E-01  8.6521782E+01
 7.1017653E-01  8.6570900E+01
 7.1690804E-01  8.6497864E+01
 7.2363961E-01  8.5662743E+01
 7.3037112E-01  8.5704758E+01
 7.3710263E-01  8.5856201E+01
 7.4383420E-01  8.5398605E+01
 7.5056571E-01  8.4749649E+01
 7.5729728E-01  8.4180939E+01
 7.6402879E-01  8.4649185E+01
 7.7076030E-01  8.4917961E+01
 7.7749187E-01  8.4163155E+01
 7.8422338E-01  8.3402016E+01
 7.9095489E-01  8.3299744E+01
 7.9768646E-01  8.3023788E+01
 8.0441797E-01  8.3776764E+01
 8.1114948E-01  8.3648323E+01
 8.1788105E-01  8.3287453E+01
 8.2461256E-01  8.2889755E+01
 8.3134407E-01  8.2449501E+01
 8.3807564E-01  8.2375847E+01
 8.4480715E-01  8.2844193E+01
 8.5153866E-01  8.3086113E+01
 8.5827023E-01  8.2801971E+01
 8.6500174E-01  8.1835533E+01
 8.7173331E-01  8.2119118E+01
 8.7846482E-01  8.2670479E+01
 8.8519633E-01  8.2744102E+01
 8.9192790E-01  8.1732574E+01
 8.9865941E-01  8.1572411E+01
 9.0539092E-01  8.1013985E+01
 9.1212249E-01  8.0923050E+01
 9.1885400E-01  8.0797287E+01
 9.2558551E-01  8.0172905E+01
 9.3231708E-01  8.0864578E+01
 9.3904859E-01  8.0175850E+01
 9.4578010E-01  8.0399284E+01
 9.5251167E-01  8.0589180E+01
 9.5924318E-01  7.9974411E+01
 9.6597469E-01  8.0103813E+01
 9.7270626E-01  8.0125542E+01
 9.7943777E-01  8.0128326E+01
 9.8616934E-01  7.9661011E+01
 9.9290085E-01  7.9301888E+01
 9.9963236E-01  7.9526985E+01
 1.0063639E+00  7.9539925E+01
 1.0130954E+00  7.9546593E+01
 1.0198270E+00  7.9193848E+01
 1.0265585E+00  7.8746582E+01
 1.0332900E+00  7.8679810E+01
 1.0400215E+00  7.8705643E+01
 1.0467530E+00  7.8612000E+01
 1.0534847E+00  7.8696129E+01
 1.0602162E+00  7.8140999E+01
 1.0669477E+00  7.8586525E+01
 1.0736792E+00  7.8243561E+01
 1.0804107E+00  7.8623947E+01
 1.0871422E+00  7.7781273E+01
 1.0938739E+00  7.7295357E+01
 1.1006054E+00  7.7505486E+01
 1.1073369E+00  7.7591599E+01
 1.1140684E+00  7.7143280E+01
 1.1207999E+00  7.6767319E+01
 1.1275314E+00  7.6613182E+01
 1.1342630E+00  7.7009193E+01
 1.1409945E+00  7.6872353E+01
 1.1477261E+00  7.6740608E+01
 1.1544576E+00  7.6859360E+01
 1.1611891E+00  7.6006279E+01
 1.1679206E+00  7.6404716E+01
 1.1746522E+00  7.6193489E+01
 1.1813837E+00  7.6387199E+01
 1.1881152E+00  7.6858093E+01
 1.1948467E+00  7.7079819E+01
 1.2015783E+00  7.6979683E+01
 1.2083099E+00  7.7024849E+01
 1.2150414E+00  7.7102287E+01
 1.2217729E+00  7.7475143E+01
 1.2285044E+00  7.7639595E+01
 1.2352359E+00  7.7338875E+01
 1.2419674E+00  7.7653564E+01
 1.2486991E+00  7.7401237E+01
 1.2554306E+00  7.7513153E+01
 1.2621621E+00  7.7572472E+01
 1.2688936E+00  7.7154396E+01
 1.2756251E+00  7.7024200E+01
 1.2823566E+00  7.6713844E+01
 1.2890882E+00  7.7210114E+01
 1.2958198E+00  7.6836014E+01
 1.3025513E+00  7.6595558E+01
 1.3092828E+00  7.5844429E+01
 1.3160143E+00  7.5660385E+01
 1.3227459E+00  7.5340141E+01
 1.3294774E+00  7.5219681E+01
 1.3362089E+00  7.4865097E+01
 1.3429404E+00  7.4684769E+01
 1.3496720E+00  7.4843559E+01
 1.3564035E+00  7.4732033E+01
 1.3631351E+00  7.4325485E+01
 1.3698666E+00  7.4310402E+01
 1.3765981E+00  7.3952370E+01
 1.3833296E+00  7.3850769E+01
 1.3900611E+00  7.3519966E+01
 1.3967927E+00  7.3267715E+01
 1.4035243E+00  7.3807304E+01
 1.4102558E+00  7.3572166E+01
 1.4169873E+00  7.3829491E+01
 1.4237188E+00  7.3349838E+01
 1.4304503E+00  7.3258018E+01
 1.4371819E+00  7.3214600E+01
 1.4439135E+00  7.3032616E+01
 1.4506450E+00  7.2529251E+01
 1.4573765E+00  7.3071877E+01
 1.4641080E+00  7.2988747E+01
 1.4708395E+00  7.2936958E+01
 1.4775711E+00  7.3355431E+01
 1.4843026E+00  7.3074638E+01
 1.4910342E+00  7.2599541E+01
 1.4977657E+00  7.2787209E+01
 1.5044972E+00  7.2586052E+01
 1.5112287E+00  7.2418327E+01
 1.5179603E+00  7.2386040E+01
 1.5246918E+00  7.2095825E+01
 1.5314233E+00  7.2444603E+01
 1.5381548E+00  7.2226677E+01
 1.5448864E+00  7.2468231E+01
 1.5516180E+00  7.2310051E+01
 1.5583495E+00  7.1651871E+01
 1.5650810E+00  7.2103256E+01
 1.5718125E+00  7.2264969E+01
 1.5785440E+00  7.1829018E+01
 1.5852755E+00  7.1963844E+01
 1.5920072E+00  7.1422760E+01
 1.5987387E+00  7.1292953E+01
 1.6054702E+00  7.0993744E+01
 1.6122017E+00  7.1202141E+01
 1.6189332E+00  7.1651512E+01
 1.6256647E+00  7.1354675E+01
 1.6323963E+00  7.1001350E+01
 1.6391279E+00  7.1044685E+01
 1.6458594E+00  7.1178856E+01
 1.6525909E+00  7.0764671E+01
 1.6593224E+00  7.0637810E+01
 1.6660540E+00  7.0606018E+01
 1.6727855E+00  7.0292244E+01
 1.6795170E+00  7.0520638E+01
 1.6862485E+00  7.1050964E+01
 1.6929801E+00  7.0416687E+01
 1.6997116E+00  7.0312866E+01
 1.7064432E+00  7.0407776E+01
 1.7131747E+00  7.0503853E+01
 1.7199062E+00  7.0206360E+01
 1.7266377E+00  7.0052002E+01
 1.7333692E+00  7.0282852E+01
 1.7401007E+00  6.9752693E+01
 1.7468324E+00  6.9972916E+01
 1.7535639E+00  7.0063484E+01
 1.7602954E+00  6.9677017E+01
 1.7670269E+00  6.9889687E+01
 1.7737584E+00  6.9538254E+01
 1.7804899E+00  6.9569069E+01
 1.7872216E+00  6.9386475E+01
 1.7939531E+00  6.9447159E+01
 1.8006846E+00  6.8890411E+01
 1.8074161E+00  6.9050148E+01
 1.8141476E+00  6.9047829E+01
 1.8208792E+00  6.9473793E+01
 1.8276107E+00  6.9062363E+01
 1.8343422E+00  6.9437584E+01
 1.8410738E+00  6.9524979E+01
 1.8478053E+00  6.8823357E+01
 1.8545368E+00  6.8713264E+01
 1.8612684E+00  6.8616936E+01
 1.8679999E+00  6.8913780E+01
 1.8747314E+00  6.9265221E+01
 1.8814629E+00  6.8330803E+01
 1.8881944E+00  6.8340706E+01
 1.8949260E+00  6.8437584E+01
 1.9016576E+00  6.8424591E+01
 1.9083891E+00  6.8652405E+01
 1.9151206E+00  6.8581009E+01
 1.9218521E+00  6.7842018E+01
 1.9285836E+00  6.8279266E+01
 1.9353153E+00  6.7995255E+01
 1.9420468E+00  6.7864388E+01
 1.9487783E+00  6.7860931E+01
 1.9555098E+00  6.8095802E+01
 1.9622413E+00  6.8129768E+01
 1.9689728E+00  6.8144417E+01
 1.9757044E+00  6.7931793E+01
 1.9824359E+00  6.7752151E+01
 1.9891675E+00  6.7745331E+01
 1.9958990E+00  6.7811508E+01
 2.0026305E+00  6.7630402E+01
 2.0093620E+00  6.7660408E+01
 2.0160935E+00  6.7678268E+01
 2.0228250E+00  6.7452126E+01
 2.0295565E+00  6.7502312E+01
 2.0362883E+00  6.7122063E+01
 2.0430198E+00  6.7070732E+01
 2.0497513E+00  6.7081757E+01
 2.0564828E+00  6.6819183E+01
 2.0632143E+00  6.6779549E+01
 2.0699458E+00  6.7001129E+01
 2.0766773E+00  6.6860947E+01
 2.0834088E+00  6.6852753E+01
 2.0901403E+00  6.6949951E+01
 2.0968719E+00  6.6514145E+01
 2.1036034E+00  6.6728691E+01
 2.1103351E+00  6.6663620E+01
 2.1170666E+00  6.6754745E+01
 2.1237981E+00  6.6760513E+01
 2.1305296E+00  6.6942078E+01
 2.1372612E+00  6.6675224E+01
 2.1439927E+00  6.6442383E+01
 2.1507242E+00  6.6043587E+01
 2.1574557E+00  6.5824440E+01
 2.1641872E+00  6.6230911E+01
 2.1709187E+00  6.6113159E+01
 2.1776502E+00  6.6344360E+01
 2.1843820E+00  6.6129044E+01
 2.1911135E+00  6.6239349E+01
 2.1978450E+00  6.5578568E+01
 2.2045765E+00  6.5825081E+01
 2.2113080E+00  6.5766495E+01
 2.2180395E+00  6.6135048E+01
 2.2247710E+00  6.6205711E+01
 2.2315025E+00  6.6068954E+01
 2.2382340E+00  6.5864479E+01
 2.2449656E+00  6.5750870E+01
 2.2516971E+00  6.5791939E+01
 2.2584286E+00  6.5559258E+01
 2.2651603E+00  6.5908516E+01
 2.2718918E+00  6.5938210E+01
 2.2786233E+00  6.5797897E+01
 2.2853549E+00  6.5227882E+01
 2.2920864E+00  6.5776161E+01
 2.2988179E+00  6.5765533E+01
 2.3055494E+00  6.5274384E+01
 2.3122809E+00  6.4892365E+01
 2.3190124E+00  6.5163582E+01
 2.3257439E+00  6.5338158E+01
 2.3324754E+00  6.5069359E+01
 2.3392072E+00  6.5220779E+01
 2.3459387E+00  6.5212517E+01
 2.3526702E+00  6.5185196E+01
 2.3594017E+00  6.4534851E+01
 2.3661332E+00  6.4942917E+01
 2.3728647E+00  6.4985886E+01
 2.3795962E+00  6.5005974E+01
 2.3863277E+00  6.4631653E+01
 2.3930593E+00  6.4751785E+01
 2.3997908E+00  6.4673141E+01
 2.4065223E+00  6.4699287E+01
 2.4132540E+00  6.4466255E+01
 2.4199855E+00  6.4267296E+01
 2.4267170E+00  6.4551758E+01
 2.4334486E+00  6.4622894E+01
 2.4401801E+00  6.4592567E+01
 2.4469116E+00  6.4467690E+01
 2.4536431E+00  6.3967381E+01
 2.4603746E+00  6.4275558E+01
 2.4671061E+00  6.3789169E+01
 2.4738376E+00  6.4001030E+01
 2.4805691E+00  6.4037575E+01
 2.4873006E+00  6.3863785E+01
 2.4940324E+00  6.3773800E+01
 2.5007639E+00  6.3969913E+01
 2.5074954E+00  6.3924217E+01
 2.5142269E+00  6.3927723E+01
 2.5209584E+00  6.3644974E+01
 2.5276899E+00  6.3555443E+01
 2.5344214E+00  6.3716396E+01
 2.5411530E+00  6.3648323E+01
 2.5478845E+00  6.3377270E+01
 2.5546160E+00  6.3717850E+01
 2.5613475E+00  6.3768658E+01
 2.5680792E+00  6.3426971E+01
 2.5748107E+00  6.3256939E+01
 2.5815423E+00  6.3314419E+01
 2.5882738E+00  6.3313614E+01
 2.5950053E+00  6.3527210E+01
 2.6017368E+00  6.3456169E+01
 2.6084683E+00  6.3313652E+01
 2.6151998E+00  6.3000980E+01
 2.6219313E+00  6.3063145E+01
 2.6286628E+00  6.3070683E+01
 2.6353943E+00  6.2643967E+01
 2.6421258E+00  6.3185524E+01
 2.6488576E+00  6.3530613E+01
 2.6555891E+00  6.3287876E+01
 2.6623206E+00  6.3168686E+01
 2.6690521E+00  6.2902546E+01
 2.6757836E+00  6.3126282E+01
 2.6825151E+00  6.3287395E+01
 2.6892467E+00  6.2841728E+01
 2.6959782E+00  6.3237888E+01
 2.7027097E+00  6.3401535E+01
 2.7094412E+00  6.2922359E+01
 2.7161727E+00  6.2958313E+01
 2.7229044E+00  6.2696083E+01
 2.7296360E+00  6.2421833E+01
 2.7363675E+00  6.2282558E+01
 2.7430990E+00  6.2273346E+01
 2.7498305E+00  6.1860058E+01
 2.7565620E+00  6.1937447E+01
 2.7632935E+00  6.1750862E+01
 2.7700250E+00  6.2188931E+01
 2.7767565E+00  6.1887932E+01
 2.7834880E+00  6.1573856E+01
 2.7902195E+00  6.1774181E+01
 2.7969513E+00  6.1545055E+01
 2.8036828E+00  6.1564083E+01
 2.8104143E+00  6.1717194E+01
 2.8171458E+00  6.1340210E+01
 2.8238773E+00  6.1359505E+01
 2.8306088E+00  6.1070629E+01
 2.8373404E+00  6.0961487E+01
 2.8440719E+00  6.1140160E+01
 2.8508034E+00  6.1139103E+01
 2.8575349E+00  6.0889999E+01
 2.8642664E+00  6.0505905E+01
 2.8709979E+00  6.0343586E+01
 2.8777297E+00  6.0310593E+01
 2.8844612E+00  6.0571766E+01
 2.8911927E+00  6.0312168E+01
 2.8979242E+00  6.0534668E+01
 2.9046557E+00  6.0281044E+01
 2.9113872E+00  6.0378124E+01
 2.9181187E+00  6.0485111E+01
 2.9248502E+00  6.0158592E+01
 2.9315817E+00  6.0629799E+01
 2.9383132E+00  6.0167744E+01
 2.9450448E+00  6.0127491E+01
 2.9517765E+00  6.0240162E+01
 2.9585080E+00  6.0565495E+01
 2.9652395E+00  6.0285671E+01
 2.9719710E+00  5.9825603E+01
 2.9787025E+00  5.9922455E+01
 2.9854341E+00  5.9852863E+01
 2.9921656E+00  5.9981174E+01
 2.9988971E+00  5.9763058E+01
 3.0056286E+00  5.9569988E+01
 3.0123601E+00  5.9477962E+01
 3.0190916E+00  5.9504028E+01
 3.0258234E+00  5.9449543E+01
 3.0325549E+00  5.9493393E+01
 3.0392864E+00  5.9381142E+01
 3.0460179E+00  5.8966160E+01
 3.0527494E+00  5.9077042E+01
 3.0594809E+00  5.9410870E+01
 3.0662124E+00  5.9217548E+01
 3.0729439E+00  5.9109550E+01
 3.0796754E+00  5.9350018E+01
 3.0864069E+00  5.8946770E+01
 3.0931385E+00  5.8860558E+01
 3.0998700E+00  5.8774990E+01
 3.1066017E+00  5.8917065E+01
 3.1133332E+00  5.8870251E+01
 3.1200647E+00  5.9077633E+01
 3.1267962E+00  5.8546734E+01
 3.1335278E+00  5.8499207E+01
 3.1402593E+00  5.8491814E+01
 3.1469908E+00  5.8436310E+01
 3.1537223E+00  5.8222206E+01
 3.1604538E+00  5.8498692E+01
 3.1671853E+00  5.8208321E+01
 3.1739168E+00  5.8076397E+01
 3.1806486E+00  5.7840813E+01
 3.1873801E+00  5.8177624E+01
 3.1941116E+00  5.8284275E+01
 3.2008431E+00  5.8134319E+01
 3.2075746E+00  5.7764801E+01
 3.2143061E+00  5.7799149E+01
 3.2210376E+00  5.7479923E+01
 3.2277691E+00  5.7829609E+01
 3.2345006E+00  5.8046635E+01
 3.2412322E+00  5.7968327E+01
 3.2479637E+00  5.7857109E+01
 3.2546952E+00  5.8072197E+01
 3.2614269E+00  5.7767036E+01
 3.2681584E+00  5.7833073E+01
 3.2748899E+00  5.7643497E+01
 3.2816215E+00  5.7887325E+01
 3.2883530E+00  5.7619881E+01
 3.2950845E+00  5.7596172E+01
 3.3018160E+00  5.7614361E+01
 3.3085475E+00  5.7310749E+01
 3.3152790E+00  5.7209621E+01
 3.3220105E+00  5.7309044E+01
 3.3287420E+00  5.7218853E+01
 3.3354738E+00  5.6732166E+01
 3.3422053E+00  5.6731724E+01
 3.3489368E+00  5.6764496E+01
 3.3556683E+00  5.6826500E+01
 3.3623998E+00  5.6877968E+01
 3.3691313E+00  5.6658367E+01
 3.3758628E+00  5.6765804E+01
 3.3825943E+00  5.6648220E+01
 3.3893259E+00  5.6419479E+01
 3.3960574E+00  5.6563698E+01
 3.4027889E+00  5.6392456E+01
 3.4095206E+00  5.6431122E+01
 3.4162521E+00  5.6673180E+01
 3.4229836E+00  5.6700184E+01
 3.4297152E+00  5.6416473E+01
 3.4364467E+00  5.5929539E+01
 3.4431782E+00  5.6375801E+01
 3.4499097E+00  5.6388348E+01
 3.4566412E+00  5.6217026E+01
 3.4633727E+00  5.5915096E+01
 3.4701042E+00  5.6133987E+01
 3.4768357E+00  5.5827637E+01
 3.4835672E+00  5.5952900E+01
 3.4902990E+00  5.5756325E+01
 3.4970305E+00  5.5796280E+01
 3.5037620E+00  5.5576195E+01
 3.5104935E+00  5.5976727E+01
 3.5172250E+00  5.5847141E+01
 3.5239565E+00  5.5870628E+01
 3.5306880E+00  5.5468468E+01
 3.5374196E+00  5.5053989E+01
 3.5441511E+00  5.5414516E+01
 3.5508826E+00  5.5474991E+01
 3.5576141E+00  5.5401775E+01
 3.5643458E+00  5.5199749E+01
 3.5710773E+00  5.4997417E+01
 3.5778089E+00  5.5115570E+01
 3.5845404E+00  5.5234947E+01
 3.5912719E+00  5.5352879E+01
 3.5980034E+00  5.4746727E+01
 3.6047349E+00  5.4774483E+01
 3.6114664E+00  5.4872105E+01
 3.6181979E+00  5.5038475E+01
 3.6249294E+00  5.4948627E+01
 3.6316609E+00  5.4781040E+01
 3.6383927E+00  5.4592663E+01
 3.6451242E+00  5.4963486E+01
 3.6518557E+00  5.4681412E+01
 3.6585872E+00  5.4562237E+01
 3.6653187E+00  5.4539795E+01
 3.6720502E+00  5.4594891E+01
 3.6787817E+00  5.4566219E+01
 3.6855133E+00  5.4584675E+01
 3.6922448E+00  5.4444042E+01
 3.6989763E+00  5.4130104E+01
 3.7057078E+00  5.3931427E+01
 3.7124393E+00  5.4317284E+01
 3.7191710E+00  5.4256470E+01
 3.7259026E+00  5.4107834E+01
 3.7326341E+00  5.4033554E+01
 3.7393656E+00  5.4081253E+01
 3.7460971E+00  5.3898132E+01
 3.7528286E+00  5.3745987E+01
 3.7595601E+00  5.3899509E+01
 3.7662916E+00  5.3999359E+01
 3.7730231E+00  5.4040691E+01
 3.7797546E+00  5.3855362E+01
 3.7864861E+00  5.3784031E+01
 3.7932179E+00  5.3349800E+01
 3.7999494E+00  5.3661709E+01
 3.8066809E+00  5.3906406E+01
 3.8134124E+00  5.4000916E+01
 3.8201439E+00  5.4044739E+01
 3.8268754E+00  5.3700573E+01
 3.8336070E+00  5.3453941E+01
 3.8403385E+00  5.3691967E+01
 3.8470700E+00  5.3316418E+01
 3.8538015E+00  5.3400898E+01
 3.8605330E+00  5.3503117E+01
 3.8672645E+00  5.3483269E+01
 3.8739963E+00  5.3462311E+01
 3.8807278E+00  5.3092339E+01
 3.8874593E+00  5.3207253E+01
 3.8941908E+00  5.2918694E+01
 3.9009223E+00  5.2750641E+01
 3.9076538E+00  5.3114994E+01
 3.9143853E+00  5.2935005E+01
 3.9211168E+00  5.3048767E+01
 3.9278483E+00  5.2998390E+01
 3.9345798E+00  5.2639874E+01
 3.9413114E+00  5.2671162E+01
 3.9480431E+00  5.2450577E+01
 3.9547746E+00  5.2713657E+01
 3.9615061E+00  5.2845669E+01
 3.9682376E+00  5.2731953E+01
 3.9749691E+00  5.2394131E+01
 3.9817007E+00  5.2335575E+01
 3.9884322E+00  5.2758347E+01
 3.9951637E+00  5.2571331E+01
 4.0018954E+00  5.2538464E+01
 4.0086269E+00  5.2407547E+01
 4.0153584E+00  5.2565701E+01
 4.0220900E+00  5.2423988E+01
 4.0288215E+00  5.2191662E+01
 4.0355530E+00  5.2259754E+01
 4.0422845E+00  5.2074490E+01
 4.0490160E+00  5.1963943E+01
 4.0557475E+00  5.1939255E+01
 4.0624790E+00  5.1787922E+01
 4.0692105E+00  5.1729355E+01
 4.0759420E+00  5.1439682E+01
 4.0826735E+00  5.1515278E+01
 4.0894051E+00  5.1738598E+01
 4.0961366E+00  5.1540886E+01
 4.1028681E+00  5.1675797E+01
 4.1095996E+00  5.1577793E+01
 4.1163311E+00  5.1352863E+01
 4.1230626E+00  5.1242222E+01
 4.1297941E+00  5.1470245E+01
 4.1365261E+00  5.1156414E+01
 4.1432576E+00  5.0851883E+01
 4.1499891E+00  5.0828461E+01
 4.1567206E+00  5.1207142E+01
 4.1634521E+00  5.1614315E+01
 4.1701837E+00  5.1343517E+01
 4.1769152E+00  5.1163265E+01
 4.1836467E+00  5.0980484E+01
 4.1903782E+00  5.0961220E+01
 4.1971097E+00  5.0904537E+01
 4.2038412E+00  5.1349606E+01
 4.2105727E+00  5.0981525E+01
 4.2173042E+00  5.1112019E+01
 4.2240357E+00  5.1025665E+01
 4.2307673E+00  5.0770618E+01
 4.2374988E+00  5.0763599E+01
 4.2442303E+00  5.1208202E+01
 4.2509618E+00  5.1106319E+01
 4.2576933E+00  5.0916584E+01
 4.2644248E+00  5.1038486E+01
 4.2711563E+00  5.0940472E+01
 4.2778878E+00  5.0520702E+01
 4.2846193E+00  5.0870270E+01
 4.2913513E+00  5.0709324E+01
 4.2980828E+00  5.0699123E+01
 4.3048143E+00  5.0431156E+01
 4.3115458E+00  5.0664753E+01
 4.3182774E+00  5.0602901E+01
 4.3250089E+00  5.0633858E+01
 4.3317404E+00  5.0607674E+01
 4.3384719E+00  5.0585033E+01
 4.3452034E+00  5.0543667E+01
 4.3519349E+00  5.0574001E+01
 4.3586664E+00  5.0391407E+01
 4.3653979E+00  5.0652004E+01
 4.3721294E+00  5.0640724E+01
 4.3788610E+00  5.0602840E+01
 4.3855925E+00  5.0290268E+01
 4.3923240E+00  5.0193459E+01
 4.3990555E+00  5.0233307E+01
 4.4057870E+00  5.0215813E+01
 4.4125185E+00  5.0444485E+01
 4.4192500E+00  5.0601212E+01
 4.4259815E+00  5.0574215E+01
 4.4327130E+00  5.0691727E+01
 4.4394445E+00  5.0475330E+01
 4.4461765E+00  5.0572334E+01
 4.4529080E+00  5.0293026E+01
 4.4596395E+00  5.0501217E+01
 4.4663711E+00  5.0271629E+01
 4.4731026E+00  5.0344639E+01
 4.4798341E+00  5.0376419E+01
 4.4865656E+00  5.0502567E+01
 4.4932971E+00  5.0178391E+01
 4.5000286E+00  5.0348881E+01
 4.5067601E+00  5.0287136E+01
 4.5134916E+00  4.9982861E+01
 4.5202231E+00  5.0111938E+01
 4.5269547E+00  4.9923363E+01
 4.5336862E+00  4.9924332E+01
 4.5404177E+00  4.9878433E+01
 4.5471492E+00  4.9967472E+01
 4.5538807E+00  4.9855404E+01
 4.5606122E+00  4.9929108E+01
 4.5673437E+00  4.9879543E+01
 4.5740752E+00  4.9900517E+01
 4.5808067E+00  5.0015087E+01
 4.5875382E+00  4.9991997E+01
 4.5942698E+00  4.9876488E+01
 4.6010017E+00  4.9941463E+01
 4.6077332E+00  4.9872551E+01
 4.6144648E+00  4.9693638E+01
 4.6211963E+00  4.9672939E+01
 4.6279278E+00  5.0054935E+01
 4.6346593E+00  4.9459278E+01
 4.6413908E+00  4.9565952E+01
 4.6481223E+00  4.9835403E+01
 4.6548538E+00  4.9648090E+01
 4.6615853E+00  4.9304539E+01
 4.6683168E+00  4.9276100E+01
 4.6750484E+00  4.9558323E+01
 4.6817799E+00  4.9358601E+01
 4.6885114E+00  4.9400234E+01
 4.6952429E+00  4.9585384E+01
 4.7019744E+00  4.9343586E+01
 4.7087059E+00  4.9547146E+01
 4.7154374E+00  4.9211086E+01
 4.7221689E+00  4.9411728E+01
 4.7289004E+00  4.9378551E+01
 4.7356319E+00  4.9326782E+01
 4.7423635E+00  4.9150822E+01
 4.7490954E+00  4.9344467E+01
 4.7558270E+00  4.9179413E+01
 4.7625585E+00  4.9333218E+01
 4.7692900E+00  4.9387173E+01
 4.7760215E+00  4.8979523E+01
 4.7827530E+00  4.9071846E+01
 4.7894845E+00  4.9342670E+01
 4.7962160E+00  4.9443031E+01
 4.8029475E+00  4.9068287E+01
 4.8096790E+00  4.8941875E+01
 4.8164105E+00  4.9179829E+01
 4.8231421E+00  4.9065815E+01
 4.8298736E+00  4.8980740E+01
 4.8366051E+00  4.8837177E+01
 4.8433366E+00  4.8871738E+01
 4.8500681E+00  4.8473503E+01
 4.8567996E+00  4.8710896E+01
 4.8635311E+00  4.8532841E+01
 4.8702626E+00  4.8719093E+01
 4.8769941E+00  4.8718945E+01
 4.8837256E+00  4.8583370E+01
 4.8904572E+00  4.8467415E+01
 4.8971887E+00  4.8262493E+01
 4.9039207E+00  4.8111881E+01
 4.9106522E+00  4.8388062E+01
 4.9173837E+00  4.8530094E+01
 4.9241152E+00  4.8498947E+01
 4.9308467E+00  4.8744244E+01
 4.9375782E+00  4.8479061E+01
 4.9443097E+00  4.8524372E+01
 4.9510412E+00  4.8502419E+01
 4.9577727E+00  4.8476761E+01
 4.9645042E+00  4.8286442E+01
 4.9712358E+00  4.8434887E+01
 4.9779673E+00  4.8470379E+01
 4.9846988E+00  4.8335007E+01
 4.9914303E+00  4.8218456E+01
 4.9981618E+00  4.8160095E+01
 5.0048933E+00  4.8219185E+01
 5.0116248E+00  4.8209755E+01
 5.0183563E+00  4.7928326E+01
 5.0250878E+00  4.8042336E+01
 5.0318193E+00  4.8067482E+01
 5.0385509E+00  4.7698734E+01
 5.0452824E+00  4.7844742E+01
 5.0520139E+00  4.7815472E+01
 5.0587459E+00  4.7791035E+01
 5.0654774E+00  4.8236324E+01
 5.0722089E+00  4.8203144E+01
 5.0789404E+00  4.8131691E+01
 5.0856719E+00  4.7977173E+01
 5.0924034E+00  4.7686905E+01
 5.0991349E+00  4.7868011E+01
 5.1058664E+00  4.7802719E+01
 5.1125979E+00  4.7777855E+01
 5.1193295E+00  4.7805534E+01
 5.1260610E+00  4.7701805E+01
 5.1327925E+00  4.7842979E+01
 5.1395240E+00  4.7836212E+01
 5.1462555E+00  4.7650444E+01
 5.1529870E+00  4.7319668E+01
 5.1597185E+00  4.7352100E+01
 5.1664500E+00  4.7449612E+01
 5.1731815E+00  4.7233887E+01
 5.1799130E+00  4.7330452E+01
 5.1866446E+00  4.7157059E+01
 5.1933761E+00  4.7293179E+01
 5.2001076E+00  4.7360046E+01
 5.2068391E+00  4.7482250E+01
 5.2135711E+00  4.7273533E+01
 5.2203026E+00  4.7147591E+01
 5.2270341E+00  4.7114708E+01
 5.2337656E+00  4.7143360E+01
 5.2404971E+00  4.7088329E+01
 5.2472286E+00  4.7196079E+01
 5.2539601E+00  4.7007069E+01
 5.2606916E+00  4.7436726E+01
 5.2674232E+00  4.7130257E+01
 5.2741547E+00  4.7249207E+01
 5.2808862E+00  4.6937222E+01
 5.2876177E+00  4.6742832E+01
 5.2943492E+00  4.7022758E+01
 5.3010807E+00  4.6764694E+01
 5.3078122E+00  4.6891357E+01
 5.3145437E+00  4.6784412E+01
 5.3212752E+00  4.6561390E+01
 5.3280067E+00  4.6978973E+01
 5.3347383E+00  4.6745411E+01
 5.3414698E+00  4.6950512E+01
 5.3482013E+00  4.6788105E+01
 5.3549328E+00  4.6653580E+01
 5.3616648E+00  4.6731384E+01
 5.3683963E+00  4.6574688E+01
 5.3751278E+00  4.6624554E+01
 5.3818593E+00  4.6646626E+01
 5.3885908E+00  4.6429234E+01
 5.3953223E+00  4.6467987E+01
 5.4020538E+00  4.6542957E+01
 5.4087853E+00  4.6392883E+01
 5.4155169E+00  4.6376202E+01
 5.4222484E+00  4.6312939E+01
 5.4289799E+00  4.6253826E+01
 5.4357114E+00  4.6620033E+01
 5.4424429E+00  4.6340637E+01
 5.4491744E+00  4.6093395E+01
 5.4559059E+00  4.6421505E+01
 5.4626374E+00  4.6455914E+01
 5.4693689E+00  4.6155697E+01
 5.4761004E+00  4.5898521E+01
 5.4828320E+00  4.5943810E+01
 5.4895635E+00  4.5876160E+01
 5.4962950E+00  4.6166553E+01
 5.5030265E+00  4.5991386E+01
 5.5097580E+00  4.6018173E+01
 5.5164900E+00  4.5870770E+01
 5.5232215E+00  4.5653290E+01
 5.5299530E+00  4.5861908E+01
 5.5366845E+00  4.6008904E+01
 5.5434160E+00  4.5636196E+01
 5.5501475E+00  4.5476120E+01
 5.5568790E+00  4.5629490E+01
 5.5636106E+00  4.5325153E+01
 5.5703421E+00  4.5147663E+01
 5.5770736E+00  4.5792568E+01
 5.5838051E+00  4.5612480E+01
 5.5905366E+00  4.5088634E+01
 5.5972681E+00  4.5263809E+01
 5.6039996E+00  4.5299641E+01
 5.6107311E+00  4.5259808E+01
 5.6174626E+00  4.5318657E+01
 5.6241941E+00  4.5043774E+01
 5.6309257E+00  4.5114323E+01
 5.6376572E+00  4.5077106E+01
 5.6443887E+00  4.4502041E+01
 5.6511202E+00  4.4940067E+01
 5.6578517E+00  4.4746452E+01
 5.6645832E+00  4.4813580E+01
 5.6713152E+00  4.4884289E+01
 5.6780467E+00  4.5070477E+01
 5.6847782E+00  4.4497509E+01
 5.6915097E+00  4.4451157E+01
 5.6982412E+00  4.4829144E+01
 5.7049727E+00  4.4726490E+01
 5.7117043E+00  4.4061253E+01
 5.7184358E+00  4.3954689E+01
 5.7251673E+00  4.3762554E+01
 5.7318988E+00  4.3842949E+01
 5.7386303E+00  4.3703087E+01
 5.7453618E+00  4.3553993E+01
 5.7520933E+00  4.3426933E+01
 5.7588248E+00  4.3760532E+01
 5.7655563E+00  4.3495655E+01
 5.7722878E+00  4.3294651E+01
 5.7790194E+00  4.3515793E+01
 5.7857509E+00  4.3395500E+01
 5.7924824E+00  4.3237972E+01
 5.7992139E+00  4.3055023E+01
 5.8059454E+00  4.2947578E+01
 5.8126769E+00  4.3254105E+01
 5.8194084E+00  4.2874691E+01
 5.8261404E+00  4.2459461E+01
 5.8328719E+00  4.2524788E+01
 5.8396034E+00  4.2707596E+01
 5.8463349E+00  4.2661934E+01
 5.8530664E+00  4.2291161E+01
 5.8597980E+00  4.2332424E+01
 5.8665295E+00  4.1983311E+01
 5.8732610E+00  4.2026791E+01
 5.8799925E+00  4.1920353E+01
 5.8867240E+00  4.1480537E+01
 5.8934555E+00  4.1751724E+01
 5.9001870E+00  4.1430725E+01
 5.9069185E+00  4.1841564E+01
 5.9136500E+00  4.1530178E+01
 5.9203815E+00  4.1408749E+01
 5.9271131E+00  4.1089607E+01
 5.9338446E+00  4.0790245E+01
 5.9405761E+00  4.0439976E+01
 5.9473076E+00  4.0140919E+01
 5.9540391E+00  4.0572124E+01
 5.9607706E+00  4.0319950E+01
 5.9675021E+00  3.9740360E+01
 5.9742341E+00  4.0006012E+01
 5.9809656E+00  4.0061298E+01
 5.9876971E+00  3.9893894E+01
 5.9944286E+00  3.9852940E+01
 6.0011601E+00  4.0183441E+01
 6.0078917E+00  4.0209488E+01
 6.0146232E+00  3.9793655E+01
 6.0213547E+00  3.9013321E+01
 6.0280862E+00  3.8505836E+01
 6.0348177E+00  3.8676682E+01
 6.0415492E+00  3.8384769E+01
 6.0482807E+00  3.8333355E+01
 6.0550122E+00  3.8309311E+01
 6.0617437E+00  3.8558781E+01
 6.0684752E+00  3.8305943E+01
 6.0752068E+00  3.8129101E+01
 6.0819383E+00  3.8299667E+01
 6.0886698E+00  3.7959949E+01
 6.0954013E+00  3.7682465E+01
 6.1021328E+00  3.7444286E+01
 6.1088643E+00  3.7581501E+01
 6.1155958E+00  3.7032719E+01
 6.1223273E+00  3.6763737E+01
 6.1290593E+00  3.7186207E+01
 6.1357908E+00  3.7243217E+01
 6.1425223E+00  3.7156651E+01
 6.1492538E+00  3.6844772E+01
 6.1559854E+00  3.6900215E+01
 6.1627169E+00  3.6622475E+01
 6.1694484E+00  3.6432369E+01
 6.1761799E+00  3.5716740E+01
 6.1829114E+00  3.5821907E+01
 6.1896429E+00  3.5837841E+01
 6.1963744E+00  3.6255833E+01
 6.2031059E+00  3.6284916E+01
 6.2098374E+00  3.6075066E+01
 6.2165689E+00  3.5288761E+01
 6.2233005E+00  3.5523571E+01
 6.2300320E+00  3.5282036E+01
 6.2367635E+00  3.5721119E+01
 6.2434950E+00  3.5169178E+01
 6.2502265E+00  3.5101994E+01
 6.2569580E+00  3.5187611E+01
 6.2636895E+00  3.4618755E+01
 6.2704210E+00  3.4615002E+01
 6.2771525E+00  3.4620861E+01
 6.2838845E+00  3.4772392E+01
 6.2906160E+00  3.4999729E+01
 6.2973475E+00  3.4325886E+01
 6.3040791E+00  3.3579929E+01
 6.3108106E+00  3.3431145E+01
 6.3175421E+00  3.3520332E+01
 6.3242736E+00  3.3718472E+01
 6.3310051E+00  3.3513084E+01
 6.3377366E+00  3.3805958E+01
 6.3444681E+00  3.3084915E+01
 6.3511996E+00  3.3646828E+01
 6.3579311E+00  3.3304893E+01
 6.3646626E+00  3.3289036E+01
 6.3713942E+00  3.2329651E+01
 6.3781257E+00  3.2852356E+01
 6.3848572E+00  3.1966425E+01
 6.3915887E+00  3.1588892E+01
 6.3983202E+00  3.2616619E+01
 6.4050517E+00  3.1842489E+01
 6.4117832E+00  3.1493948E+01
 6.4185147E+00  3.2390839E+01
 6.4252462E+00  3.3349133E+01
 6.4319777E+00  3.4468349E+01
 6.4387097E+00  3.2589142E+01
 6.4454412E+00  3.1464033E+01
 6.4521728E+00  3.2169155E+01
 6.4589043E+00  3.1743267E+01
 6.4656358E+00  3.0763487E+01
 6.4723673E+00  3.2610489E+01
 6.4790988E+00  2.7919193E+01
 6.4858303E+00  0.0000000E+00
 6.4925618E+00  0.0000000E+00
 6.4992933E+00  0.0000000E+00
 6.5060248E+00  0.0000000E+00
 6.5127563E+00  0.0000000E+00
 6.5194879E+00  0.0000000E+00
 6.5262194E+00  0.0000000E+00
 6.5329509E+00  0.0000000E+00
 6.5396824E+00  0.0000000E+00
 6.5464139E+00  0.0000000E+00
 6.5531454E+00  0.0000000E+00
 6.5598769E+00  0.0000000E+00
 6.5666084E+00  0.0000000E+00
 6.5733399E+00  0.0000000E+00
 6.5800714E+00  0.0000000E+00
 6.5868034E+00  0.0000000E+00
 6.5935349E+00  0.0000000E+00
 6.6002665E+00  0.0000000E+00
 6.6069980E+00  0.0000000E+00
 6.6137295E+00  0.0000000E+00
 6.6204610E+00  0.0000000E+00
 6.6271925E+00  0.0000000E+00
 6.6339240E+00  0.0000000E+00
 6.6406555E+00  0.0000000E+00
 6.6473870E+00  0.0000000E+00
 6.6541185E+00  0.0000000E+00
 6.6608500E+00  0.0000000E+00
 6.6675816E+00  0.0000000E+00
 6.6743131E+00  0.0000000E+00
 6.6810446E+00  0.0000000E+00
 6.6877761E+00  0.0000000E+00
 6.6945076E+00  0.0000000E+00
 6.7012391E+00  0.0000000E+00
 6.7079706E+00  0.0000000E+00
 6.7147021E+00  0.0000000E+00
 6.7214336E+00  0.0000000E+00
 6.7281651E+00  0.0000000E+00
 6.7348967E+00  0.0000000E+00
 6.7416286E+00  0.0000000E+00
