buf1_00000.tif: Q-Space Scan
Q (Inverse Nanometres)

       1002
 3.3657656E-03  0.0000000E+00
 1.0097297E-02  0.0000000E+00
 1.6828828E-02  0.0000000E+00
 2.3560358E-02  0.0000000E+00
 3.0291891E-02  0.0000000E+00
 3.7023421E-02  0.0000000E+00
 4.3754954E-02  0.0000000E+00
 5.0486483E-02  0.0000000E+00
 5.7218015E-02  0.0000000E+00
 6.3949548E-02  0.0000000E+00
 7.0681080E-02  0.0000000E+00
 7.7412605E-02  0.0000000E+00
 8.4144138E-02  0.0000000E+00
 9.0875670E-02  4.2949194E+03
 9.7607203E-02  3.8766128E+03
 1.0433874E-01  3.1816008E+03
 1.1107026E-01  2.5235425E+03
 1.1780179E-01  2.0350509E+03
 1.2453333E-01  1.6424475E+03
 1.3126485E-01  1.3505731E+03
 1.3799639E-01  1.1110210E+03
 1.4472792E-01  9.2334918E+02
 1.5145946E-01  7.9209943E+02
 1.5819098E-01  6.7938678E+02
 1.6492251E-01  5.8508777E+02
 1.7165405E-01  5.1248999E+02
 1.7838557E-01  4.5589038E+02
 1.8511711E-01  4.0884378E+02
 1.9184864E-01  3.7488910E+02
 1.9858016E-01  3.3962076E+02
 2.0531170E-01  3.1157474E+02
 2.1204323E-01  2.9022281E+02
 2.1877477E-01  2.7242169E+02
 2.2550629E-01  2.5137973E+02
 2.3223783E-01  2.3269955E+02
 2.3896936E-01  2.1835446E+02
 2.4570088E-01  2.0706416E+02
 2.5243241E-01  1.9516251E+02
 2.5916395E-01  1.8572745E+02
 2.6589549E-01  1.7639482E+02
 2.7262700E-01  1.7006389E+02
 2.7935854E-01  1.6335033E+02
 2.8609008E-01  1.5730373E+02
 2.9282162E-01  1.5281258E+02
 2.9955313E-01  1.4789717E+02
 3.0628467E-01  1.4216815E+02
 3.1301621E-01  1.3853688E+02
 3.1974772E-01  1.3473256E+02
 3.2647926E-01  1.3163551E+02
 3.3321080E-01  1.2911700E+02
 3.3994234E-01  1.2453584E+02
 3.4667385E-01  1.2272211E+02
 3.5340539E-01  1.2009512E+02
 3.6013693E-01  1.1762520E+02
 3.6686844E-01  1.1628873E+02
 3.7359998E-01  1.1511046E+02
 3.8033152E-01  1.1311632E+02
 3.8706303E-01  1.1163253E+02
 3.9379457E-01  1.0889229E+02
 4.0052611E-01  1.0851356E+02
 4.0725765E-01  1.0692801E+02
 4.1398916E-01  1.0560272E+02
 4.2072070E-01  1.0528586E+02
 4.2745224E-01  1.0366119E+02
 4.3418375E-01  1.0161057E+02
 4.4091529E-01  1.0289362E+02
 4.4764683E-01  1.0234985E+02
 4.5437834E-01  1.0071653E+02
 4.6110988E-01  9.9910599E+01
 4.6784142E-01  9.9409119E+01
 4.7457296E-01  9.9017609E+01
 4.8130447E-01  9.7680779E+01
 4.8803601E-01  9.7057861E+01
 4.9476755E-01  9.6805779E+01
 5.0149906E-01  9.6359573E+01
 5.0823063E-01  9.5668030E+01
 5.1496214E-01  9.4771988E+01
 5.2169365E-01  9.4133530E+01
 5.2842522E-01  9.4004868E+01
 5.3515673E-01  9.4071648E+01
 5.4188824E-01  9.3629250E+01
 5.4861981E-01  9.3368431E+01
 5.5535132E-01  9.2685577E+01
 5.6208283E-01  9.2634575E+01
 5.6881440E-01  9.1557625E+01
 5.7554591E-01  9.1980942E+01
 5.8227742E-01  9.1238571E+01
 5.8900899E-01  9.1248802E+01
 5.9574050E-01  9.1026581E+01
 6.0247201E-01  9.0778587E+01
 6.0920358E-01  9.0390686E+01
 6.1593509E-01  8.9936104E+01
 6.2266666E-01  8.9856964E+01
 6.2939817E-01  8.8959656E+01
 6.3612968E-01  8.8688011E+01
 6.4286125E-01  8.8949593E+01
 6.4959276E-01  8.9099937E+01
 6.5632427E-01  8.8377312E+01
 6.6305584E-01  8.9512901E+01
 6.6978735E-01  8.7983391E+01
 6.7651886E-01  8.7473053E+01
 6.8325043E-01  8.7217384E+01
 6.8998194E-01  8.7725090E+01
 6.9671345E-01  8.7332314E+01
 7.0344502E-01  8.6766167E+01
 7.1017653E-01  8.7070976E+01
 7.1690804E-01  8.6903435E+01
 7.2363961E-01  8.5645821E+01
 7.3037112E-01  8.5798805E+01
 7.3710263E-01  8.5326836E+01
 7.4383420E-01  8.5734589E+01
 7.5056571E-01  8.4823349E+01
 7.5729728E-01  8.4148003E+01
 7.6402879E-01  8.4606682E+01
 7.7076030E-01  8.3950745E+01
 7.7749187E-01  8.3838821E+01
 7.8422338E-01  8.4588005E+01
 7.9095489E-01  8.3933876E+01
 7.9768646E-01  8.3629616E+01
 8.0441797E-01  8.3349922E+01
 8.1114948E-01  8.3109116E+01
 8.1788105E-01  8.2914772E+01
 8.2461256E-01  8.3654633E+01
 8.3134407E-01  8.3557487E+01
 8.3807564E-01  8.3160599E+01
 8.4480715E-01  8.2571983E+01
 8.5153866E-01  8.2599937E+01
 8.5827023E-01  8.2092422E+01
 8.6500174E-01  8.2048180E+01
 8.7173331E-01  8.2193901E+01
 8.7846482E-01  8.1241501E+01
 8.8519633E-01  8.1863724E+01
 8.9192790E-01  8.1784256E+01
 8.9865941E-01  8.1371674E+01
 9.0539092E-01  8.0870041E+01
 9.1212249E-01  8.1278488E+01
 9.1885400E-01  8.1596695E+01
 9.2558551E-01  8.1439705E+01
 9.3231708E-01  8.1705750E+01
 9.3904859E-01  8.0626175E+01
 9.4578010E-01  8.0662987E+01
 9.5251167E-01  7.9905571E+01
 9.5924318E-01  8.0455566E+01
 9.6597469E-01  7.9748505E+01
 9.7270626E-01  7.9626549E+01
 9.7943777E-01  8.0025124E+01
 9.8616934E-01  8.0109154E+01
 9.9290085E-01  7.9431068E+01
 9.9963236E-01  7.9564430E+01
 1.0063639E+00  7.9267517E+01
 1.0130954E+00  7.9446846E+01
 1.0198270E+00  7.8815979E+01
 1.0265585E+00  7.8844704E+01
 1.0332900E+00  7.8349060E+01
 1.0400215E+00  7.8531021E+01
 1.0467530E+00  7.8262711E+01
 1.0534847E+00  7.8686508E+01
 1.0602162E+00  7.7954727E+01
 1.0669477E+00  7.7932465E+01
 1.0736792E+00  7.7876747E+01
 1.0804107E+00  7.7595085E+01
 1.0871422E+00  7.7664581E+01
 1.0938739E+00  7.7877228E+01
 1.1006054E+00  7.7568077E+01
 1.1073369E+00  7.7528259E+01
 1.1140684E+00  7.7451157E+01
 1.1207999E+00  7.7444740E+01
 1.1275314E+00  7.6892990E+01
 1.1342630E+00  7.6783920E+01
 1.1409945E+00  7.7021263E+01
 1.1477261E+00  7.6484940E+01
 1.1544576E+00  7.6217941E+01
 1.1611891E+00  7.6803741E+01
 1.1679206E+00  7.6881721E+01
 1.1746522E+00  7.6798920E+01
 1.1813837E+00  7.7040863E+01
 1.1881152E+00  7.7489655E+01
 1.1948467E+00  7.7461914E+01
 1.2015783E+00  7.7577347E+01
 1.2083099E+00  7.7397484E+01
 1.2150414E+00  7.7651634E+01
 1.2217729E+00  7.7356560E+01
 1.2285044E+00  7.7220139E+01
 1.2352359E+00  7.7563492E+01
 1.2419674E+00  7.7098015E+01
 1.2486991E+00  7.7281960E+01
 1.2554306E+00  7.7744888E+01
 1.2621621E+00  7.8269547E+01
 1.2688936E+00  7.7682632E+01
 1.2756251E+00  7.7494652E+01
 1.2823566E+00  7.7457275E+01
 1.2890882E+00  7.6280930E+01
 1.2958198E+00  7.5971130E+01
 1.3025513E+00  7.6247780E+01
 1.3092828E+00  7.6078720E+01
 1.3160143E+00  7.5787880E+01
 1.3227459E+00  7.5697929E+01
 1.3294774E+00  7.5012695E+01
 1.3362089E+00  7.5692566E+01
 1.3429404E+00  7.4550766E+01
 1.3496720E+00  7.4236801E+01
 1.3564035E+00  7.4108017E+01
 1.3631351E+00  7.4108482E+01
 1.3698666E+00  7.4385773E+01
 1.3765981E+00  7.4637062E+01
 1.3833296E+00  7.4265038E+01
 1.3900611E+00  7.4125908E+01
 1.3967927E+00  7.4174210E+01
 1.4035243E+00  7.4081467E+01
 1.4102558E+00  7.4001526E+01
 1.4169873E+00  7.3389229E+01
 1.4237188E+00  7.3333405E+01
 1.4304503E+00  7.3871674E+01
 1.4371819E+00  7.4094337E+01
 1.4439135E+00  7.3398643E+01
 1.4506450E+00  7.2672386E+01
 1.4573765E+00  7.2818436E+01
 1.4641080E+00  7.2628548E+01
 1.4708395E+00  7.2211746E+01
 1.4775711E+00  7.2382072E+01
 1.4843026E+00  7.2941391E+01
 1.4910342E+00  7.2932137E+01
 1.4977657E+00  7.2578262E+01
 1.5044972E+00  7.3235725E+01
 1.5112287E+00  7.2961281E+01
 1.5179603E+00  7.2149254E+01
 1.5246918E+00  7.2185158E+01
 1.5314233E+00  7.1932648E+01
 1.5381548E+00  7.1960518E+01
 1.5448864E+00  7.1911743E+01
 1.5516180E+00  7.1776802E+01
 1.5583495E+00  7.1585442E+01
 1.5650810E+00  7.2163506E+01
 1.5718125E+00  7.1648323E+01
 1.5785440E+00  7.1398529E+01
 1.5852755E+00  7.1610008E+01
 1.5920072E+00  7.1588432E+01
 1.5987387E+00  7.1334152E+01
 1.6054702E+00  7.1227013E+01
 1.6122017E+00  7.1532135E+01
 1.6189332E+00  7.1613815E+01
 1.6256647E+00  7.1437996E+01
 1.6323963E+00  7.1364319E+01
 1.6391279E+00  7.1437584E+01
 1.6458594E+00  7.1290115E+01
 1.6525909E+00  7.1396973E+01
 1.6593224E+00  7.0681572E+01
 1.6660540E+00  7.0845184E+01
 1.6727855E+00  7.0907738E+01
 1.6795170E+00  7.0864784E+01
 1.6862485E+00  7.0692848E+01
 1.6929801E+00  7.0694572E+01
 1.6997116E+00  7.0339828E+01
 1.7064432E+00  7.0440826E+01
 1.7131747E+00  7.0712601E+01
 1.7199062E+00  7.0217369E+01
 1.7266377E+00  7.0330528E+01
 1.7333692E+00  7.0582314E+01
 1.7401007E+00  7.0025833E+01
 1.7468324E+00  6.9677422E+01
 1.7535639E+00  6.9804558E+01
 1.7602954E+00  6.9558235E+01
 1.7670269E+00  6.9740974E+01
 1.7737584E+00  6.9905663E+01
 1.7804899E+00  6.9667412E+01
 1.7872216E+00  6.9363930E+01
 1.7939531E+00  6.9414444E+01
 1.8006846E+00  6.9607368E+01
 1.8074161E+00  6.9303055E+01
 1.8141476E+00  6.9246529E+01
 1.8208792E+00  6.9259460E+01
 1.8276107E+00  6.9239418E+01
 1.8343422E+00  6.8942619E+01
 1.8410738E+00  6.8990807E+01
 1.8478053E+00  6.9090286E+01
 1.8545368E+00  6.9288124E+01
 1.8612684E+00  6.8969826E+01
 1.8679999E+00  6.9040009E+01
 1.8747314E+00  6.9080025E+01
 1.8814629E+00  6.8741913E+01
 1.8881944E+00  6.9238945E+01
 1.8949260E+00  6.8889206E+01
 1.9016576E+00  6.8624977E+01
 1.9083891E+00  6.8735344E+01
 1.9151206E+00  6.8496063E+01
 1.9218521E+00  6.8003586E+01
 1.9285836E+00  6.8169319E+01
 1.9353153E+00  6.8169479E+01
 1.9420468E+00  6.8195404E+01
 1.9487783E+00  6.7782196E+01
 1.9555098E+00  6.7609756E+01
 1.9622413E+00  6.8124306E+01
 1.9689728E+00  6.8575867E+01
 1.9757044E+00  6.7787186E+01
 1.9824359E+00  6.7608513E+01
 1.9891675E+00  6.7952209E+01
 1.9958990E+00  6.7758728E+01
 2.0026305E+00  6.7694534E+01
 2.0093620E+00  6.7840500E+01
 2.0160935E+00  6.7249947E+01
 2.0228250E+00  6.7464996E+01
 2.0295565E+00  6.7089653E+01
 2.0362883E+00  6.7288139E+01
 2.0430198E+00  6.7546982E+01
 2.0497513E+00  6.7480896E+01
 2.0564828E+00  6.7097710E+01
 2.0632143E+00  6.6998840E+01
 2.0699458E+00  6.7110764E+01
 2.0766773E+00  6.7271614E+01
 2.0834088E+00  6.7393753E+01
 2.0901403E+00  6.7143227E+01
 2.0968719E+00  6.7024521E+01
 2.1036034E+00  6.6925690E+01
 2.1103351E+00  6.6897652E+01
 2.1170666E+00  6.6786308E+01
 2.1237981E+00  6.6406540E+01
 2.1305296E+00  6.6863213E+01
 2.1372612E+00  6.6578850E+01
 2.1439927E+00  6.6557121E+01
 2.1507242E+00  6.6537453E+01
 2.1574557E+00  6.6623062E+01
 2.1641872E+00  6.6640945E+01
 2.1709187E+00  6.6594528E+01
 2.1776502E+00  6.6538834E+01
 2.1843820E+00  6.6195549E+01
 2.1911135E+00  6.6316536E+01
 2.1978450E+00  6.6342957E+01
 2.2045765E+00  6.6138069E+01
 2.2113080E+00  6.5907356E+01
 2.2180395E+00  6.5930984E+01
 2.2247710E+00  6.6124077E+01
 2.2315025E+00  6.5961662E+01
 2.2382340E+00  6.5619095E+01
 2.2449656E+00  6.5654510E+01
 2.2516971E+00  6.5852005E+01
 2.2584286E+00  6.5834282E+01
 2.2651603E+00  6.5643250E+01
 2.2718918E+00  6.5509094E+01
 2.2786233E+00  6.5586555E+01
 2.2853549E+00  6.5468307E+01
 2.2920864E+00  6.5509369E+01
 2.2988179E+00  6.5045906E+01
 2.3055494E+00  6.5443420E+01
 2.3122809E+00  6.5678688E+01
 2.3190124E+00  6.5577644E+01
 2.3257439E+00  6.5346428E+01
 2.3324754E+00  6.4866783E+01
 2.3392072E+00  6.5168381E+01
 2.3459387E+00  6.5388588E+01
 2.3526702E+00  6.4826828E+01
 2.3594017E+00  6.4784485E+01
 2.3661332E+00  6.5137154E+01
 2.3728647E+00  6.5022934E+01
 2.3795962E+00  6.4833763E+01
 2.3863277E+00  6.4833656E+01
 2.3930593E+00  6.4713852E+01
 2.3997908E+00  6.4805313E+01
 2.4065223E+00  6.4562660E+01
 2.4132540E+00  6.4370239E+01
 2.4199855E+00  6.4266991E+01
 2.4267170E+00  6.4181946E+01
 2.4334486E+00  6.4477501E+01
 2.4401801E+00  6.4622322E+01
 2.4469116E+00  6.4717567E+01
 2.4536431E+00  6.4377899E+01
 2.4603746E+00  6.4216629E+01
 2.4671061E+00  6.4181160E+01
 2.4738376E+00  6.4125168E+01
 2.4805691E+00  6.4185776E+01
 2.4873006E+00  6.3966515E+01
 2.4940324E+00  6.4127502E+01
 2.5007639E+00  6.4264534E+01
 2.5074954E+00  6.3796242E+01
 2.5142269E+00  6.3774628E+01
 2.5209584E+00  6.3904392E+01
 2.5276899E+00  6.3945492E+01
 2.5344214E+00  6.3967239E+01
 2.5411530E+00  6.3968025E+01
 2.5478845E+00  6.3515488E+01
 2.5546160E+00  6.3328018E+01
 2.5613475E+00  6.3390331E+01
 2.5680792E+00  6.3555660E+01
 2.5748107E+00  6.3243767E+01
 2.5815423E+00  6.3409439E+01
 2.5882738E+00  6.3447712E+01
 2.5950053E+00  6.3590824E+01
 2.6017368E+00  6.3410122E+01
 2.6084683E+00  6.3257774E+01
 2.6151998E+00  6.3624470E+01
 2.6219313E+00  6.3282822E+01
 2.6286628E+00  6.3204220E+01
 2.6353943E+00  6.3504723E+01
 2.6421258E+00  6.3605568E+01
 2.6488576E+00  6.3617981E+01
 2.6555891E+00  6.3201401E+01
 2.6623206E+00  6.3035515E+01
 2.6690521E+00  6.3026497E+01
 2.6757836E+00  6.3298126E+01
 2.6825151E+00  6.3373375E+01
 2.6892467E+00  6.3573540E+01
 2.6959782E+00  6.3391121E+01
 2.7027097E+00  6.3524403E+01
 2.7094412E+00  6.3171246E+01
 2.7161727E+00  6.2942753E+01
 2.7229044E+00  6.2546719E+01
 2.7296360E+00  6.2517025E+01
 2.7363675E+00  6.2483768E+01
 2.7430990E+00  6.2481831E+01
 2.7498305E+00  6.2269337E+01
 2.7565620E+00  6.2338024E+01
 2.7632935E+00  6.1791130E+01
 2.7700250E+00  6.2213593E+01
 2.7767565E+00  6.1608368E+01
 2.7834880E+00  6.1554295E+01
 2.7902195E+00  6.1707603E+01
 2.7969513E+00  6.1478027E+01
 2.8036828E+00  6.1843651E+01
 2.8104143E+00  6.1331329E+01
 2.8171458E+00  6.1137939E+01
 2.8238773E+00  6.1385677E+01
 2.8306088E+00  6.1208538E+01
 2.8373404E+00  6.1106312E+01
 2.8440719E+00  6.1354816E+01
 2.8508034E+00  6.0911331E+01
 2.8575349E+00  6.0672050E+01
 2.8642664E+00  6.0987701E+01
 2.8709979E+00  6.0652500E+01
 2.8777297E+00  6.0459614E+01
 2.8844612E+00  6.0430870E+01
 2.8911927E+00  6.0393803E+01
 2.8979242E+00  6.0587803E+01
 2.9046557E+00  6.0402035E+01
 2.9113872E+00  6.0509644E+01
 2.9181187E+00  6.0593277E+01
 2.9248502E+00  6.0237335E+01
 2.9315817E+00  6.0216919E+01
 2.9383132E+00  6.0151268E+01
 2.9450448E+00  6.0027576E+01
 2.9517765E+00  6.0295723E+01
 2.9585080E+00  6.0400322E+01
 2.9652395E+00  5.9720505E+01
 2.9719710E+00  5.9828369E+01
 2.9787025E+00  5.9876297E+01
 2.9854341E+00  5.9952370E+01
 2.9921656E+00  5.9887680E+01
 2.9988971E+00  5.9495934E+01
 3.0056286E+00  5.9521790E+01
 3.0123601E+00  5.9964497E+01
 3.0190916E+00  5.9852394E+01
 3.0258234E+00  5.9675617E+01
 3.0325549E+00  5.9540997E+01
 3.0392864E+00  5.9403957E+01
 3.0460179E+00  5.9431274E+01
 3.0527494E+00  5.9478912E+01
 3.0594809E+00  5.9492100E+01
 3.0662124E+00  5.9157284E+01
 3.0729439E+00  5.8769032E+01
 3.0796754E+00  5.8676865E+01
 3.0864069E+00  5.8738419E+01
 3.0931385E+00  5.8710770E+01
 3.0998700E+00  5.9097382E+01
 3.1066017E+00  5.8893337E+01
 3.1133332E+00  5.8608044E+01
 3.1200647E+00  5.8547718E+01
 3.1267962E+00  5.8433380E+01
 3.1335278E+00  5.8639511E+01
 3.1402593E+00  5.8584202E+01
 3.1469908E+00  5.8433239E+01
 3.1537223E+00  5.8203926E+01
 3.1604538E+00  5.8475788E+01
 3.1671853E+00  5.8346970E+01
 3.1739168E+00  5.8029205E+01
 3.1806486E+00  5.8142826E+01
 3.1873801E+00  5.7892776E+01
 3.1941116E+00  5.7718910E+01
 3.2008431E+00  5.8211697E+01
 3.2075746E+00  5.7737492E+01
 3.2143061E+00  5.7823689E+01
 3.2210376E+00  5.7837883E+01
 3.2277691E+00  5.8123917E+01
 3.2345006E+00  5.7896725E+01
 3.2412322E+00  5.7859276E+01
 3.2479637E+00  5.7864983E+01
 3.2546952E+00  5.7682014E+01
 3.2614269E+00  5.7343269E+01
 3.2681584E+00  5.7371056E+01
 3.2748899E+00  5.7641514E+01
 3.2816215E+00  5.7411980E+01
 3.2883530E+00  5.7282661E+01
 3.2950845E+00  5.7277790E+01
 3.3018160E+00  5.7089676E+01
 3.3085475E+00  5.7391685E+01
 3.3152790E+00  5.7115288E+01
 3.3220105E+00  5.7145172E+01
 3.3287420E+00  5.7102867E+01
 3.3354738E+00  5.7240810E+01
 3.3422053E+00  5.7080742E+01
 3.3489368E+00  5.6722641E+01
 3.3556683E+00  5.6907722E+01
 3.3623998E+00  5.7067181E+01
 3.3691313E+00  5.6649590E+01
 3.3758628E+00  5.6800262E+01
 3.3825943E+00  5.6865425E+01
 3.3893259E+00  5.7123882E+01
 3.3960574E+00  5.6345959E+01
 3.4027889E+00  5.6870342E+01
 3.4095206E+00  5.6811695E+01
 3.4162521E+00  5.6604290E+01
 3.4229836E+00  5.6427956E+01
 3.4297152E+00  5.6366299E+01
 3.4364467E+00  5.6177635E+01
 3.4431782E+00  5.6001217E+01
 3.4499097E+00  5.6187195E+01
 3.4566412E+00  5.6199707E+01
 3.4633727E+00  5.6000946E+01
 3.4701042E+00  5.6256653E+01
 3.4768357E+00  5.6342709E+01
 3.4835672E+00  5.5980095E+01
 3.4902990E+00  5.6077263E+01
 3.4970305E+00  5.5814713E+01
 3.5037620E+00  5.5611767E+01
 3.5104935E+00  5.5804672E+01
 3.5172250E+00  5.5847893E+01
 3.5239565E+00  5.5730202E+01
 3.5306880E+00  5.5632164E+01
 3.5374196E+00  5.5277260E+01
 3.5441511E+00  5.5295010E+01
 3.5508826E+00  5.5318394E+01
 3.5576141E+00  5.5238319E+01
 3.5643458E+00  5.5125374E+01
 3.5710773E+00  5.5291656E+01
 3.5778089E+00  5.5179367E+01
 3.5845404E+00  5.5287521E+01
 3.5912719E+00  5.5356819E+01
 3.5980034E+00  5.5290672E+01
 3.6047349E+00  5.4601486E+01
 3.6114664E+00  5.4940147E+01
 3.6181979E+00  5.5030182E+01
 3.6249294E+00  5.5148937E+01
 3.6316609E+00  5.4671314E+01
 3.6383927E+00  5.4664551E+01
 3.6451242E+00  5.5157532E+01
 3.6518557E+00  5.5027451E+01
 3.6585872E+00  5.4769180E+01
 3.6653187E+00  5.4894981E+01
 3.6720502E+00  5.4507847E+01
 3.6787817E+00  5.4596512E+01
 3.6855133E+00  5.4531502E+01
 3.6922448E+00  5.4620113E+01
 3.6989763E+00  5.4505894E+01
 3.7057078E+00  5.4080147E+01
 3.7124393E+00  5.4334091E+01
 3.7191710E+00  5.4314182E+01
 3.7259026E+00  5.4128361E+01
 3.7326341E+00  5.4611385E+01
 3.7393656E+00  5.4315773E+01
 3.7460971E+00  5.4037029E+01
 3.7528286E+00  5.3929386E+01
 3.7595601E+00  5.4177856E+01
 3.7662916E+00  5.4246868E+01
 3.7730231E+00  5.4137951E+01
 3.7797546E+00  5.3849709E+01
 3.7864861E+00  5.3844475E+01
 3.7932179E+00  5.4228737E+01
 3.7999494E+00  5.3896282E+01
 3.8066809E+00  5.3601856E+01
 3.8134124E+00  5.3521744E+01
 3.8201439E+00  5.3645866E+01
 3.8268754E+00  5.3867233E+01
 3.8336070E+00  5.3701164E+01
 3.8403385E+00  5.3614262E+01
 3.8470700E+00  5.3423908E+01
 3.8538015E+00  5.3104149E+01
 3.8605330E+00  5.3237595E+01
 3.8672645E+00  5.3122890E+01
 3.8739963E+00  5.3217796E+01
 3.8807278E+00  5.2988274E+01
 3.8874593E+00  5.3148441E+01
 3.8941908E+00  5.3288807E+01
 3.9009223E+00  5.3305088E+01
 3.9076538E+00  5.3452320E+01
 3.9143853E+00  5.2958267E+01
 3.9211168E+00  5.2979984E+01
 3.9278483E+00  5.3004234E+01
 3.9345798E+00  5.2716145E+01
 3.9413114E+00  5.2847622E+01
 3.9480431E+00  5.2868385E+01
 3.9547746E+00  5.3121948E+01
 3.9615061E+00  5.2961758E+01
 3.9682376E+00  5.2580070E+01
 3.9749691E+00  5.2850578E+01
 3.9817007E+00  5.2850861E+01
 3.9884322E+00  5.2567631E+01
 3.9951637E+00  5.2386780E+01
 4.0018954E+00  5.2327034E+01
 4.0086269E+00  5.2059956E+01
 4.0153584E+00  5.1851208E+01
 4.0220900E+00  5.2439835E+01
 4.0288215E+00  5.2186382E+01
 4.0355530E+00  5.2050117E+01
 4.0422845E+00  5.2130295E+01
 4.0490160E+00  5.2012455E+01
 4.0557475E+00  5.1844612E+01
 4.0624790E+00  5.1862881E+01
 4.0692105E+00  5.2091358E+01
 4.0759420E+00  5.1748272E+01
 4.0826735E+00  5.1600830E+01
 4.0894051E+00  5.2083336E+01
 4.0961366E+00  5.1338203E+01
 4.1028681E+00  5.1508137E+01
 4.1095996E+00  5.1340607E+01
 4.1163311E+00  5.1381611E+01
 4.1230626E+00  5.1413193E+01
 4.1297941E+00  5.1432327E+01
 4.1365261E+00  5.1509399E+01
 4.1432576E+00  5.1286964E+01
 4.1499891E+00  5.0978725E+01
 4.1567206E+00  5.1235783E+01
 4.1634521E+00  5.1383278E+01
 4.1701837E+00  5.1347637E+01
 4.1769152E+00  5.0993500E+01
 4.1836467E+00  5.1185322E+01
 4.1903782E+00  5.1310772E+01
 4.1971097E+00  5.0989452E+01
 4.2038412E+00  5.1142216E+01
 4.2105727E+00  5.1253139E+01
 4.2173042E+00  5.1175240E+01
 4.2240357E+00  5.1303246E+01
 4.2307673E+00  5.1073746E+01
 4.2374988E+00  5.0815994E+01
 4.2442303E+00  5.0662506E+01
 4.2509618E+00  5.0980038E+01
 4.2576933E+00  5.1091839E+01
 4.2644248E+00  5.0914837E+01
 4.2711563E+00  5.0925190E+01
 4.2778878E+00  5.0898682E+01
 4.2846193E+00  5.0773918E+01
 4.2913513E+00  5.0786655E+01
 4.2980828E+00  5.0896679E+01
 4.3048143E+00  5.0907551E+01
 4.3115458E+00  5.0704220E+01
 4.3182774E+00  5.0692024E+01
 4.3250089E+00  5.0604465E+01
 4.3317404E+00  5.0739574E+01
 4.3384719E+00  5.0748928E+01
 4.3452034E+00  5.0776688E+01
 4.3519349E+00  5.0424984E+01
 4.3586664E+00  5.0373283E+01
 4.3653979E+00  5.0550827E+01
 4.3721294E+00  5.0678619E+01
 4.3788610E+00  5.0623352E+01
 4.3855925E+00  5.0594017E+01
 4.3923240E+00  5.0455906E+01
 4.3990555E+00  5.0533978E+01
 4.4057870E+00  5.0542332E+01
 4.4125185E+00  5.0332485E+01
 4.4192500E+00  5.0401814E+01
 4.4259815E+00  5.0278416E+01
 4.4327130E+00  5.0285927E+01
 4.4394445E+00  5.0263008E+01
 4.4461765E+00  5.0061054E+01
 4.4529080E+00  5.0199783E+01
 4.4596395E+00  5.0519890E+01
 4.4663711E+00  5.0629013E+01
 4.4731026E+00  5.0339012E+01
 4.4798341E+00  5.0360920E+01
 4.4865656E+00  5.0200283E+01
 4.4932971E+00  5.0038010E+01
 4.5000286E+00  5.0150673E+01
 4.5067601E+00  4.9783924E+01
 4.5134916E+00  4.9843510E+01
 4.5202231E+00  4.9928020E+01
 4.5269547E+00  5.0011921E+01
 4.5336862E+00  5.0211945E+01
 4.5404177E+00  4.9911980E+01
 4.5471492E+00  5.0152985E+01
 4.5538807E+00  5.0185478E+01
 4.5606122E+00  4.9758152E+01
 4.5673437E+00  4.9987968E+01
 4.5740752E+00  4.9815281E+01
 4.5808067E+00  4.9626621E+01
 4.5875382E+00  4.9967339E+01
 4.5942698E+00  4.9638897E+01
 4.6010017E+00  4.9803566E+01
 4.6077332E+00  4.9893806E+01
 4.6144648E+00  4.9672928E+01
 4.6211963E+00  4.9380486E+01
 4.6279278E+00  4.9435612E+01
 4.6346593E+00  4.9480583E+01
 4.6413908E+00  4.9768131E+01
 4.6481223E+00  4.9880390E+01
 4.6548538E+00  4.9772526E+01
 4.6615853E+00  4.9892525E+01
 4.6683168E+00  4.9446545E+01
 4.6750484E+00  4.9304367E+01
 4.6817799E+00  4.9276321E+01
 4.6885114E+00  4.9438866E+01
 4.6952429E+00  4.9199261E+01
 4.7019744E+00  4.9482239E+01
 4.7087059E+00  4.9599075E+01
 4.7154374E+00  4.9538059E+01
 4.7221689E+00  4.9482876E+01
 4.7289004E+00  4.9328510E+01
 4.7356319E+00  4.9239605E+01
 4.7423635E+00  4.9324223E+01
 4.7490954E+00  4.9495056E+01
 4.7558270E+00  4.9599014E+01
 4.7625585E+00  4.9215942E+01
 4.7692900E+00  4.9301235E+01
 4.7760215E+00  4.9006954E+01
 4.7827530E+00  4.8991245E+01
 4.7894845E+00  4.8828697E+01
 4.7962160E+00  4.8904636E+01
 4.8029475E+00  4.8939255E+01
 4.8096790E+00  4.8878784E+01
 4.8164105E+00  4.8926777E+01
 4.8231421E+00  4.8938000E+01
 4.8298736E+00  4.8781624E+01
 4.8366051E+00  4.8591064E+01
 4.8433366E+00  4.8425739E+01
 4.8500681E+00  4.8582687E+01
 4.8567996E+00  4.8625599E+01
 4.8635311E+00  4.8571274E+01
 4.8702626E+00  4.8544849E+01
 4.8769941E+00  4.8524723E+01
 4.8837256E+00  4.8724110E+01
 4.8904572E+00  4.8623020E+01
 4.8971887E+00  4.8456184E+01
 4.9039207E+00  4.8411739E+01
 4.9106522E+00  4.8468433E+01
 4.9173837E+00  4.8221500E+01
 4.9241152E+00  4.8185158E+01
 4.9308467E+00  4.8483051E+01
 4.9375782E+00  4.8454025E+01
 4.9443097E+00  4.8566967E+01
 4.9510412E+00  4.8135021E+01
 4.9577727E+00  4.8284138E+01
 4.9645042E+00  4.8417492E+01
 4.9712358E+00  4.8336823E+01
 4.9779673E+00  4.8372723E+01
 4.9846988E+00  4.8278984E+01
 4.9914303E+00  4.8481686E+01
 4.9981618E+00  4.8056969E+01
 5.0048933E+00  4.7952721E+01
 5.0116248E+00  4.8270370E+01
 5.0183563E+00  4.8128784E+01
 5.0250878E+00  4.8165119E+01
 5.0318193E+00  4.8287426E+01
 5.0385509E+00  4.7921463E+01
 5.0452824E+00  4.8097317E+01
 5.0520139E+00  4.8119659E+01
 5.0587459E+00  4.8132866E+01
 5.0654774E+00  4.8129494E+01
 5.0722089E+00  4.7965080E+01
 5.0789404E+00  4.7486881E+01
 5.0856719E+00  4.7590214E+01
 5.0924034E+00  4.7659561E+01
 5.0991349E+00  4.7565826E+01
 5.1058664E+00  4.7709789E+01
 5.1125979E+00  4.7674530E+01
 5.1193295E+00  4.7794079E+01
 5.1260610E+00  4.7643719E+01
 5.1327925E+00  4.7663536E+01
 5.1395240E+00  4.7392467E+01
 5.1462555E+00  4.7191364E+01
 5.1529870E+00  4.7388783E+01
 5.1597185E+00  4.7694660E+01
 5.1664500E+00  4.7428131E+01
 5.1731815E+00  4.7576405E+01
 5.1799130E+00  4.7158737E+01
 5.1866446E+00  4.7262920E+01
 5.1933761E+00  4.7231300E+01
 5.2001076E+00  4.7232765E+01
 5.2068391E+00  4.7344894E+01
 5.2135711E+00  4.7248421E+01
 5.2203026E+00  4.7196144E+01
 5.2270341E+00  4.7248089E+01
 5.2337656E+00  4.7283333E+01
 5.2404971E+00  4.7441872E+01
 5.2472286E+00  4.7305531E+01
 5.2539601E+00  4.7130859E+01
 5.2606916E+00  4.7015293E+01
 5.2674232E+00  4.6791275E+01
 5.2741547E+00  4.7103489E+01
 5.2808862E+00  4.7078766E+01
 5.2876177E+00  4.6946033E+01
 5.2943492E+00  4.7276123E+01
 5.3010807E+00  4.7022720E+01
 5.3078122E+00  4.6916721E+01
 5.3145437E+00  4.6823101E+01
 5.3212752E+00  4.6799362E+01
 5.3280067E+00  4.6471642E+01
 5.3347383E+00  4.6786346E+01
 5.3414698E+00  4.6829529E+01
 5.3482013E+00  4.6717632E+01
 5.3549328E+00  4.6812481E+01
 5.3616648E+00  4.6683830E+01
 5.3683963E+00  4.6982571E+01
 5.3751278E+00  4.6676876E+01
 5.3818593E+00  4.6547993E+01
 5.3885908E+00  4.6539993E+01
 5.3953223E+00  4.6463135E+01
 5.4020538E+00  4.6318253E+01
 5.4087853E+00  4.6325077E+01
 5.4155169E+00  4.6404060E+01
 5.4222484E+00  4.6660320E+01
 5.4289799E+00  4.6205791E+01
 5.4357114E+00  4.6233974E+01
 5.4424429E+00  4.6530510E+01
 5.4491744E+00  4.6978828E+01
 5.4559059E+00  4.6691910E+01
 5.4626374E+00  4.6170029E+01
 5.4693689E+00  4.6234753E+01
 5.4761004E+00  4.6123581E+01
 5.4828320E+00  4.6380611E+01
 5.4895635E+00  4.6210049E+01
 5.4962950E+00  4.6155788E+01
 5.5030265E+00  4.6006775E+01
 5.5097580E+00  4.6010155E+01
 5.5164900E+00  4.5865265E+01
 5.5232215E+00  4.5939831E+01
 5.5299530E+00  4.5803524E+01
 5.5366845E+00  4.5869701E+01
 5.5434160E+00  4.5993153E+01
 5.5501475E+00  4.5730717E+01
 5.5568790E+00  4.5994812E+01
 5.5636106E+00  4.5777813E+01
 5.5703421E+00  4.5272797E+01
 5.5770736E+00  4.5571449E+01
 5.5838051E+00  4.5317757E+01
 5.5905366E+00  4.5623814E+01
 5.5972681E+00  4.5244259E+01
 5.6039996E+00  4.5286907E+01
 5.6107311E+00  4.5379898E+01
 5.6174626E+00  4.5306408E+01
 5.6241941E+00  4.5091351E+01
 5.6309257E+00  4.5228638E+01
 5.6376572E+00  4.4931343E+01
 5.6443887E+00  4.4734814E+01
 5.6511202E+00  4.5013432E+01
 5.6578517E+00  4.4702240E+01
 5.6645832E+00  4.4972252E+01
 5.6713152E+00  4.4621567E+01
 5.6780467E+00  4.4806412E+01
 5.6847782E+00  4.4958858E+01
 5.6915097E+00  4.4819633E+01
 5.6982412E+00  4.4657051E+01
 5.7049727E+00  4.4163811E+01
 5.7117043E+00  4.3904938E+01
 5.7184358E+00  4.4054420E+01
 5.7251673E+00  4.3723324E+01
 5.7318988E+00  4.3927502E+01
 5.7386303E+00  4.3800365E+01
 5.7453618E+00  4.3492046E+01
 5.7520933E+00  4.3397575E+01
 5.7588248E+00  4.3536518E+01
 5.7655563E+00  4.3329624E+01
 5.7722878E+00  4.3151482E+01
 5.7790194E+00  4.3368900E+01
 5.7857509E+00  4.3322063E+01
 5.7924824E+00  4.3610588E+01
 5.7992139E+00  4.3156998E+01
 5.8059454E+00  4.3128643E+01
 5.8126769E+00  4.3288517E+01
 5.8194084E+00  4.2977722E+01
 5.8261404E+00  4.2638561E+01
 5.8328719E+00  4.2372112E+01
 5.8396034E+00  4.1971474E+01
 5.8463349E+00  4.2080261E+01
 5.8530664E+00  4.2458099E+01
 5.8597980E+00  4.2150291E+01
 5.8665295E+00  4.2373272E+01
 5.8732610E+00  4.2194992E+01
 5.8799925E+00  4.1804722E+01
 5.8867240E+00  4.2321365E+01
 5.8934555E+00  4.1646317E+01
 5.9001870E+00  4.1735783E+01
 5.9069185E+00  4.1527721E+01
 5.9136500E+00  4.1858604E+01
 5.9203815E+00  4.1474300E+01
 5.9271131E+00  4.1367279E+01
 5.9338446E+00  4.0945038E+01
 5.9405761E+00  4.0473759E+01
 5.9473076E+00  4.0803574E+01
 5.9540391E+00  4.0618618E+01
 5.9607706E+00  4.0349609E+01
 5.9675021E+00  4.0872398E+01
 5.9742341E+00  4.0617977E+01
 5.9809656E+00  4.0178997E+01
 5.9876971E+00  3.9837238E+01
 5.9944286E+00  3.9862118E+01
 6.0011601E+00  3.9598522E+01
 6.0078917E+00  3.9299820E+01
 6.0146232E+00  3.9135075E+01
 6.0213547E+00  3.9305038E+01
 6.0280862E+00  3.9043522E+01
 6.0348177E+00  3.8645496E+01
 6.0415492E+00  3.8483624E+01
 6.0482807E+00  3.8012974E+01
 6.0550122E+00  3.8249569E+01
 6.0617437E+00  3.8261745E+01
 6.0684752E+00  3.8566612E+01
 6.0752068E+00  3.8293831E+01
 6.0819383E+00  3.7835358E+01
 6.0886698E+00  3.7754829E+01
 6.0954013E+00  3.7434433E+01
 6.1021328E+00  3.8132973E+01
 6.1088643E+00  3.7161839E+01
 6.1155958E+00  3.7472614E+01
 6.1223273E+00  3.7566772E+01
 6.1290593E+00  3.7179867E+01
 6.1357908E+00  3.6904392E+01
 6.1425223E+00  3.6329262E+01
 6.1492538E+00  3.6014278E+01
 6.1559854E+00  3.7078819E+01
 6.1627169E+00  3.7307350E+01
 6.1694484E+00  3.6522495E+01
 6.1761799E+00  3.6190834E+01
 6.1829114E+00  3.5820076E+01
 6.1896429E+00  3.6342983E+01
 6.1963744E+00  3.6460224E+01
 6.2031059E+00  3.6063892E+01
 6.2098374E+00  3.5070465E+01
 6.2165689E+00  3.6745777E+01
 6.2233005E+00  3.6070206E+01
 6.2300320E+00  3.5505409E+01
 6.2367635E+00  3.4913879E+01
 6.2434950E+00  3.5135101E+01
 6.2502265E+00  3.5618706E+01
 6.2569580E+00  3.4854401E+01
 6.2636895E+00  3.4583549E+01
 6.2704210E+00  3.4635475E+01
 6.2771525E+00  3.4741680E+01
 6.2838845E+00  3.4431747E+01
 6.2906160E+00  3.4626362E+01
 6.2973475E+00  3.4715034E+01
 6.3040791E+00  3.4578892E+01
 6.3108106E+00  3.4377960E+01
 6.3175421E+00  3.4019882E+01
 6.3242736E+00  3.4063995E+01
 6.3310051E+00  3.3642818E+01
 6.3377366E+00  3.3307140E+01
 6.3444681E+00  3.3666264E+01
 6.3511996E+00  3.3370739E+01
 6.3579311E+00  3.2912300E+01
 6.3646626E+00  3.2577332E+01
 6.3713942E+00  3.3012882E+01
 6.3781257E+00  3.3265842E+01
 6.3848572E+00  3.2778320E+01
 6.3915887E+00  3.1754129E+01
 6.3983202E+00  3.3093132E+01
 6.4050517E+00  3.2733437E+01
 6.4117832E+00  3.1452610E+01
 6.4185147E+00  3.2475929E+01
 6.4252462E+00  3.3063522E+01
 6.4319777E+00  3.2254345E+01
 6.4387097E+00  3.2654179E+01
 6.4454412E+00  3.1941843E+01
 6.4521728E+00  3.2026707E+01
 6.4589043E+00  3.2404366E+01
 6.4656358E+00  3.3092941E+01
 6.4723673E+00  3.2395111E+01
 6.4790988E+00  2.8372458E+01
 6.4858303E+00  0.0000000E+00
 6.4925618E+00  0.0000000E+00
 6.4992933E+00  0.0000000E+00
 6.5060248E+00  0.0000000E+00
 6.5127563E+00  0.0000000E+00
 6.5194879E+00  0.0000000E+00
 6.5262194E+00  0.0000000E+00
 6.5329509E+00  0.0000000E+00
 6.5396824E+00  0.0000000E+00
 6.5464139E+00  0.0000000E+00
 6.5531454E+00  0.0000000E+00
 6.5598769E+00  0.0000000E+00
 6.5666084E+00  0.0000000E+00
 6.5733399E+00  0.0000000E+00
 6.5800714E+00  0.0000000E+00
 6.5868034E+00  0.0000000E+00
 6.5935349E+00  0.0000000E+00
 6.6002665E+00  0.0000000E+00
 6.6069980E+00  0.0000000E+00
 6.6137295E+00  0.0000000E+00
 6.6204610E+00  0.0000000E+00
 6.6271925E+00  0.0000000E+00
 6.6339240E+00  0.0000000E+00
 6.6406555E+00  0.0000000E+00
 6.6473870E+00  0.0000000E+00
 6.6541185E+00  0.0000000E+00
 6.6608500E+00  0.0000000E+00
 6.6675816E+00  0.0000000E+00
 6.6743131E+00  0.0000000E+00
 6.6810446E+00  0.0000000E+00
 6.6877761E+00  0.0000000E+00
 6.6945076E+00  0.0000000E+00
 6.7012391E+00  0.0000000E+00
 6.7079706E+00  0.0000000E+00
 6.7147021E+00  0.0000000E+00
 6.7214336E+00  0.0000000E+00
 6.7281651E+00  0.0000000E+00
 6.7348967E+00  0.0000000E+00
 6.7416286E+00  0.0000000E+00
