part_00001.tif: Q-Space Scan
Q (Inverse Nanometres)

       1002
 3.3657656E-03  0.0000000E+00
 1.0097297E-02  0.0000000E+00
 1.6828828E-02  0.0000000E+00
 2.3560358E-02  0.0000000E+00
 3.0291891E-02  0.0000000E+00
 3.7023421E-02  0.0000000E+00
 4.3754954E-02  0.0000000E+00
 5.0486483E-02  0.0000000E+00
 5.7218015E-02  0.0000000E+00
 6.3949548E-02  0.0000000E+00
 7.0681080E-02  0.0000000E+00
 7.7412605E-02  0.0000000E+00
 8.4144138E-02  0.0000000E+00
 9.0875670E-02  1.0761208E+06
 9.7607203E-02  1.0775570E+06
 1.0433874E-01  1.0724025E+06
 1.1107026E-01  9.5625444E+05
 1.1780179E-01  7.4344050E+05
 1.2453333E-01  5.7832800E+05
 1.3126485E-01  4.5755438E+05
 1.3799639E-01  3.6634313E+05
 1.4472792E-01  2.9749591E+05
 1.5145946E-01  2.4747173E+05
 1.5819098E-01  2.0696592E+05
 1.6492251E-01  1.7470345E+05
 1.7165405E-01  1.4743019E+05
 1.7838557E-01  1.2560450E+05
 1.8511711E-01  1.0722577E+05
 1.9184864E-01  9.1935836E+04
 1.9858016E-01  7.9527297E+04
 2.0531170E-01  6.8854797E+04
 2.1204323E-01  5.9931824E+04
 2.1877477E-01  5.2376164E+04
 2.2550629E-01  4.6051016E+04
 2.3223783E-01  4.0719391E+04
 2.3896936E-01  3.6047438E+04
 2.4570088E-01  3.2173166E+04
 2.5243241E-01  2.8675486E+04
 2.5916395E-01  2.5667480E+04
 2.6589549E-01  2.3092564E+04
 2.7262700E-01  2.0838092E+04
 2.7935854E-01  1.8846953E+04
 2.8609008E-01  1.7075156E+04
 2.9282162E-01  1.5481289E+04
 2.9955313E-01  1.4102984E+04
 3.0628467E-01  1.2863353E+04
 3.1301621E-01  1.1757838E+04
 3.1974772E-01  1.0792024E+04
 3.2647926E-01  9.9099326E+03
 3.3321080E-01  9.0981689E+03
 3.3994234E-01  8.3740488E+03
 3.4667385E-01  7.7484551E+03
 3.5340539E-01  7.1597124E+03
 3.6013693E-01  6.6244580E+03
 3.6686844E-01  6.1404912E+03
 3.7359998E-01  5.7073511E+03
 3.8033152E-01  5.3233262E+03
 3.8706303E-01  4.9384150E+03
 3.9379457E-01  4.6117290E+03
 4.0052611E-01  4.3077793E+03
 4.0725765E-01  4.0319170E+03
 4.1398916E-01  3.7837029E+03
 4.2072070E-01  3.5424109E+03
 4.2745224E-01  3.3258105E+03
 4.3418375E-01  3.1313113E+03
 4.4091529E-01  2.9425144E+03
 4.4764683E-01  2.7701565E+03
 4.5437834E-01  2.6155508E+03
 4.6110988E-01  2.4715837E+03
 4.6784142E-01  2.3305835E+03
 4.7457296E-01  2.2043889E+03
 4.8130447E-01  2.0848462E+03
 4.8803601E-01  1.9774948E+03
 4.9476755E-01  1.8753156E+03
 5.0149906E-01  1.7779984E+03
 5.0823063E-01  1.6869812E+03
 5.1496214E-01  1.6078108E+03
 5.2169365E-01  1.5282523E+03
 5.2842522E-01  1.4562000E+03
 5.3515673E-01  1.3900533E+03
 5.4188824E-01  1.3237228E+03
 5.4861981E-01  1.2650592E+03
 5.5535132E-01  1.2074545E+03
 5.6208283E-01  1.1540836E+03
 5.6881440E-01  1.1028809E+03
 5.7554591E-01  1.0560612E+03
 5.8227742E-01  1.0100275E+03
 5.8900899E-01  9.6670654E+02
 5.9574050E-01  9.2541681E+02
 6.0247201E-01  8.9216949E+02
 6.0920358E-01  8.5476306E+02
 6.1593509E-01  8.2020953E+02
 6.2266666E-01  7.9041742E+02
 6.2939817E-01  7.6034894E+02
 6.3612968E-01  7.3191663E+02
 6.4286125E-01  7.0481122E+02
 6.4959276E-01  6.7865491E+02
 6.5632427E-01  6.5573859E+02
 6.6305584E-01  6.3317810E+02
 6.6978735E-01  6.1018488E+02
 6.7651886E-01  5.8932227E+02
 6.8325043E-01  5.6813409E+02
 6.8998194E-01  5.4855920E+02
 6.9671345E-01  5.3010980E+02
 7.0344502E-01  5.1499536E+02
 7.1017653E-01  4.9813901E+02
 7.1690804E-01  4.8368597E+02
 7.2363961E-01  4.6809491E+02
 7.3037112E-01  4.5458578E+02
 7.3710263E-01  4.4005148E+02
 7.4383420E-01  4.2808099E+02
 7.5056571E-01  4.1350259E+02
 7.5729728E-01  4.0193076E+02
 7.6402879E-01  3.8932584E+02
 7.7076030E-01  3.7882343E+02
 7.7749187E-01  3.6909863E+02
 7.8422338E-01  3.5915573E+02
 7.9095489E-01  3.4806088E+02
 7.9768646E-01  3.3838019E+02
 8.0441797E-01  3.3116641E+02
 8.1114948E-01  3.2171362E+02
 8.1788105E-01  3.1306070E+02
 8.2461256E-01  3.0601654E+02
 8.3134407E-01  2.9858417E+02
 8.3807564E-01  2.9102255E+02
 8.4480715E-01  2.8513596E+02
 8.5153866E-01  2.7764868E+02
 8.5827023E-01  2.7095767E+02
 8.6500174E-01  2.6385855E+02
 8.7173331E-01  2.5844278E+02
 8.7846482E-01  2.5394673E+02
 8.8519633E-01  2.4885605E+02
 8.9192790E-01  2.4074565E+02
 8.9865941E-01  2.3587569E+02
 9.0539092E-01  2.3178011E+02
 9.1212249E-01  2.2782603E+02
 9.1885400E-01  2.2345377E+02
 9.2558551E-01  2.1775214E+02
 9.3231708E-01  2.1260439E+02
 9.3904859E-01  2.0918640E+02
 9.4578010E-01  2.0463896E+02
 9.5251167E-01  2.0077928E+02
 9.5924318E-01  1.9621982E+02
 9.6597469E-01  1.9320576E+02
 9.7270626E-01  1.8977602E+02
 9.7943777E-01  1.8576781E+02
 9.8616934E-01  1.8291087E+02
 9.9290085E-01  1.7897096E+02
 9.9963236E-01  1.7629225E+02
 1.0063639E+00  1.7295912E+02
 1.0130954E+00  1.7116736E+02
 1.0198270E+00  1.6817909E+02
 1.0265585E+00  1.6451076E+02
 1.0332900E+00  1.6237674E+02
 1.0400215E+00  1.6013246E+02
 1.0467530E+00  1.5743858E+02
 1.0534847E+00  1.5430753E+02
 1.0602162E+00  1.5131844E+02
 1.0669477E+00  1.4915471E+02
 1.0736792E+00  1.4744077E+02
 1.0804107E+00  1.4539354E+02
 1.0871422E+00  1.4318886E+02
 1.0938739E+00  1.4111818E+02
 1.1006054E+00  1.3893474E+02
 1.1073369E+00  1.3769409E+02
 1.1140684E+00  1.3515120E+02
 1.1207999E+00  1.3352951E+02
 1.1275314E+00  1.3073473E+02
 1.1342630E+00  1.2906534E+02
 1.1409945E+00  1.2733202E+02
 1.1477261E+00  1.2590947E+02
 1.1544576E+00  1.2406143E+02
 1.1611891E+00  1.2300843E+02
 1.1679206E+00  1.2135342E+02
 1.1746522E+00  1.2041699E+02
 1.1813837E+00  1.1955385E+02
 1.1881152E+00  1.1828972E+02
 1.1948467E+00  1.1623847E+02
 1.2015783E+00  1.1552599E+02
 1.2083099E+00  1.1481358E+02
 1.2150414E+00  1.1268978E+02
 1.2217729E+00  1.1258317E+02
 1.2285044E+00  1.1151345E+02
 1.2352359E+00  1.1101159E+02
 1.2419674E+00  1.0867828E+02
 1.2486991E+00  1.0825235E+02
 1.2554306E+00  1.0716656E+02
 1.2621621E+00  1.0620674E+02
 1.2688936E+00  1.0520803E+02
 1.2756251E+00  1.0465993E+02
 1.2823566E+00  1.0382399E+02
 1.2890882E+00  1.0248585E+02
 1.2958198E+00  1.0033240E+02
 1.3025513E+00  9.9705750E+01
 1.3092828E+00  9.7532158E+01
 1.3160143E+00  9.6600037E+01
 1.3227459E+00  9.6014267E+01
 1.3294774E+00  9.5123093E+01
 1.3362089E+00  9.4482948E+01
 1.3429404E+00  9.2865372E+01
 1.3496720E+00  9.1674942E+01
 1.3564035E+00  9.1474007E+01
 1.3631351E+00  9.0186089E+01
 1.3698666E+00  8.9347946E+01
 1.3765981E+00  8.8603981E+01
 1.3833296E+00  8.7620026E+01
 1.3900611E+00  8.6688354E+01
 1.3967927E+00  8.6180084E+01
 1.4035243E+00  8.5354851E+01
 1.4102558E+00  8.4415741E+01
 1.4169873E+00  8.3689072E+01
 1.4237188E+00  8.3433128E+01
 1.4304503E+00  8.2435005E+01
 1.4371819E+00  8.1905548E+01
 1.4439135E+00  8.0846870E+01
 1.4506450E+00  8.0499367E+01
 1.4573765E+00  7.9632675E+01
 1.4641080E+00  7.8715485E+01
 1.4708395E+00  7.8607803E+01
 1.4775711E+00  7.8595047E+01
 1.4843026E+00  7.8117393E+01
 1.4910342E+00  7.7136574E+01
 1.4977657E+00  7.6552460E+01
 1.5044972E+00  7.6004074E+01
 1.5112287E+00  7.5550980E+01
 1.5179603E+00  7.5120224E+01
 1.5246918E+00  7.4784821E+01
 1.5314233E+00  7.4464523E+01
 1.5381548E+00  7.3572945E+01
 1.5448864E+00  7.2819458E+01
 1.5516180E+00  7.2629784E+01
 1.5583495E+00  7.2352966E+01
 1.5650810E+00  7.1981651E+01
 1.5718125E+00  7.1112305E+01
 1.5785440E+00  7.0037605E+01
 1.5852755E+00  7.0370743E+01
 1.5920072E+00  6.9336540E+01
 1.5987387E+00  6.9357132E+01
 1.6054702E+00  6.9172768E+01
 1.6122017E+00  6.9246826E+01
 1.6189332E+00  6.8900711E+01
 1.6256647E+00  6.8677261E+01
 1.6323963E+00  6.7257240E+01
 1.6391279E+00  6.6998314E+01
 1.6458594E+00  6.6956200E+01
 1.6525909E+00  6.6370407E+01
 1.6593224E+00  6.5926208E+01
 1.6660540E+00  6.5825951E+01
 1.6727855E+00  6.5415634E+01
 1.6795170E+00  6.5204453E+01
 1.6862485E+00  6.4637863E+01
 1.6929801E+00  6.4476601E+01
 1.6997116E+00  6.3705605E+01
 1.7064432E+00  6.3723312E+01
 1.7131747E+00  6.3409161E+01
 1.7199062E+00  6.2846203E+01
 1.7266377E+00  6.2884903E+01
 1.7333692E+00  6.2498466E+01
 1.7401007E+00  6.2342781E+01
 1.7468324E+00  6.1959095E+01
 1.7535639E+00  6.1671234E+01
 1.7602954E+00  6.1768234E+01
 1.7670269E+00  6.1306438E+01
 1.7737584E+00  6.1081383E+01
 1.7804899E+00  6.0648571E+01
 1.7872216E+00  6.0152325E+01
 1.7939531E+00  5.9767704E+01
 1.8006846E+00  5.9647621E+01
 1.8074161E+00  5.9482994E+01
 1.8141476E+00  5.9231297E+01
 1.8208792E+00  5.9145996E+01
 1.8276107E+00  5.8323086E+01
 1.8343422E+00  5.8436508E+01
 1.8410738E+00  5.8725822E+01
 1.8478053E+00  5.8374062E+01
 1.8545368E+00  5.8062286E+01
 1.8612684E+00  5.7865982E+01
 1.8679999E+00  5.7014091E+01
 1.8747314E+00  5.6908146E+01
 1.8814629E+00  5.6827835E+01
 1.8881944E+00  5.6657516E+01
 1.8949260E+00  5.6756386E+01
 1.9016576E+00  5.6449379E+01
 1.9083891E+00  5.5988960E+01
 1.9151206E+00  5.5971996E+01
 1.9218521E+00  5.5820107E+01
 1.9285836E+00  5.5854931E+01
 1.9353153E+00  5.5233940E+01
 1.9420468E+00  5.4761032E+01
 1.9487783E+00  5.4992088E+01
 1.9555098E+00  5.4969852E+01
 1.9622413E+00  5.4658840E+01
 1.9689728E+00  5.4154640E+01
 1.9757044E+00  5.4023087E+01
 1.9824359E+00  5.3695370E+01
 1.9891675E+00  5.3435009E+01
 1.9958990E+00  5.3430397E+01
 2.0026305E+00  5.3190166E+01
 2.0093620E+00  5.3084965E+01
 2.0160935E+00  5.2879040E+01
 2.0228250E+00  5.2772217E+01
 2.0295565E+00  5.2862999E+01
 2.0362883E+00  5.2515236E+01
 2.0430198E+00  5.2183601E+01
 2.0497513E+00  5.1821838E+01
 2.0564828E+00  5.2059872E+01
 2.0632143E+00  5.2014400E+01
 2.0699458E+00  5.1443989E+01
 2.0766773E+00  5.1054466E+01
 2.0834088E+00  5.1213146E+01
 2.0901403E+00  5.1304874E+01
 2.0968719E+00  5.1262581E+01
 2.1036034E+00  5.1002373E+01
 2.1103351E+00  5.1238258E+01
 2.1170666E+00  5.1031563E+01
 2.1237981E+00  5.0878994E+01
 2.1305296E+00  5.0525379E+01
 2.1372612E+00  5.0356178E+01
 2.1439927E+00  5.0276470E+01
 2.1507242E+00  4.9844902E+01
 2.1574557E+00  4.9824867E+01
 2.1641872E+00  4.9774658E+01
 2.1709187E+00  4.9759602E+01
 2.1776502E+00  4.9848858E+01
 2.1843820E+00  4.9277916E+01
 2.1911135E+00  4.9269444E+01
 2.1978450E+00  4.9568707E+01
 2.2045765E+00  4.9423962E+01
 2.2113080E+00  4.9129253E+01
 2.2180395E+00  4.8862263E+01
 2.2247710E+00  4.8836067E+01
 2.2315025E+00  4.8401478E+01
 2.2382340E+00  4.8730370E+01
 2.2449656E+00  4.8662601E+01
 2.2516971E+00  4.8201332E+01
 2.2584286E+00  4.8218838E+01
 2.2651603E+00  4.8132538E+01
 2.2718918E+00  4.7689423E+01
 2.2786233E+00  4.7440723E+01
 2.2853549E+00  4.7578773E+01
 2.2920864E+00  4.7422436E+01
 2.2988179E+00  4.7419334E+01
 2.3055494E+00  4.7214924E+01
 2.3122809E+00  4.7367359E+01
 2.3190124E+00  4.6788387E+01
 2.3257439E+00  4.6774433E+01
 2.3324754E+00  4.6815746E+01
 2.3392072E+00  4.7011799E+01
 2.3459387E+00  4.6503952E+01
 2.3526702E+00  4.6754375E+01
 2.3594017E+00  4.6542004E+01
 2.3661332E+00  4.6194073E+01
 2.3728647E+00  4.5787788E+01
 2.3795962E+00  4.5567825E+01
 2.3863277E+00  4.5922729E+01
 2.3930593E+00  4.6029327E+01
 2.3997908E+00  4.5674137E+01
 2.4065223E+00  4.5810268E+01
 2.4132540E+00  4.5530289E+01
 2.4199855E+00  4.5623871E+01
 2.4267170E+00  4.5758968E+01
 2.4334486E+00  4.5274788E+01
 2.4401801E+00  4.5407673E+01
 2.4469116E+00  4.5198811E+01
 2.4536431E+00  4.4582523E+01
 2.4603746E+00  4.4813881E+01
 2.4671061E+00  4.4985630E+01
 2.4738376E+00  4.4844128E+01
 2.4805691E+00  4.4644077E+01
 2.4873006E+00  4.4758091E+01
 2.4940324E+00  4.4471195E+01
 2.5007639E+00  4.4235981E+01
 2.5074954E+00  4.4266819E+01
 2.5142269E+00  4.3998089E+01
 2.5209584E+00  4.3987457E+01
 2.5276899E+00  4.3812164E+01
 2.5344214E+00  4.3625332E+01
 2.5411530E+00  4.3603394E+01
 2.5478845E+00  4.3722744E+01
 2.5546160E+00  4.3354691E+01
 2.5613475E+00  4.3446903E+01
 2.5680792E+00  4.3483105E+01
 2.5748107E+00  4.3482838E+01
 2.5815423E+00  4.3279701E+01
 2.5882738E+00  4.3074997E+01
 2.5950053E+00  4.3033340E+01
 2.6017368E+00  4.2986324E+01
 2.6084683E+00  4.2958729E+01
 2.6151998E+00  4.3065495E+01
 2.6219313E+00  4.3048668E+01
 2.6286628E+00  4.2820309E+01
 2.6353943E+00  4.2870895E+01
 2.6421258E+00  4.2949829E+01
 2.6488576E+00  4.2835926E+01
 2.6555891E+00  4.3094521E+01
 2.6623206E+00  4.3071793E+01
 2.6690521E+00  4.2414219E+01
 2.6757836E+00  4.2482826E+01
 2.6825151E+00  4.2967758E+01
 2.6892467E+00  4.2827911E+01
 2.6959782E+00  4.2593571E+01
 2.7027097E+00  4.2330463E+01
 2.7094412E+00  4.2163109E+01
 2.7161727E+00  4.2351139E+01
 2.7229044E+00  4.2363663E+01
 2.7296360E+00  4.1958691E+01
 2.7363675E+00  4.1774929E+01
 2.7430990E+00  4.1348572E+01
 2.7498305E+00  4.0975819E+01
 2.7565620E+00  4.0920120E+01
 2.7632935E+00  4.0855988E+01
 2.7700250E+00  4.0782829E+01
 2.7767565E+00  4.0649731E+01
 2.7834880E+00  4.0646343E+01
 2.7902195E+00  4.0396481E+01
 2.7969513E+00  4.0552586E+01
 2.8036828E+00  4.0401508E+01
 2.8104143E+00  3.9939377E+01
 2.8171458E+00  3.9802910E+01
 2.8238773E+00  3.9606705E+01
 2.8306088E+00  3.9623661E+01
 2.8373404E+00  3.9285152E+01
 2.8440719E+00  3.9128914E+01
 2.8508034E+00  3.9077560E+01
 2.8575349E+00  3.9097595E+01
 2.8642664E+00  3.9166363E+01
 2.8709979E+00  3.8924847E+01
 2.8777297E+00  3.9014988E+01
 2.8844612E+00  3.8721050E+01
 2.8911927E+00  3.8697830E+01
 2.8979242E+00  3.8219234E+01
 2.9046557E+00  3.8345486E+01
 2.9113872E+00  3.8298885E+01
 2.9181187E+00  3.8127079E+01
 2.9248502E+00  3.8202324E+01
 2.9315817E+00  3.8220581E+01
 2.9383132E+00  3.8051022E+01
 2.9450448E+00  3.7939487E+01
 2.9517765E+00  3.7891506E+01
 2.9585080E+00  3.7801331E+01
 2.9652395E+00  3.7812878E+01
 2.9719710E+00  3.7884983E+01
 2.9787025E+00  3.7795868E+01
 2.9854341E+00  3.7331341E+01
 2.9921656E+00  3.7230789E+01
 2.9988971E+00  3.7165146E+01
 3.0056286E+00  3.7082756E+01
 3.0123601E+00  3.7143108E+01
 3.0190916E+00  3.6730659E+01
 3.0258234E+00  3.6731579E+01
 3.0325549E+00  3.7088028E+01
 3.0392864E+00  3.6971115E+01
 3.0460179E+00  3.6663429E+01
 3.0527494E+00  3.6631844E+01
 3.0594809E+00  3.6524349E+01
 3.0662124E+00  3.6149204E+01
 3.0729439E+00  3.6210293E+01
 3.0796754E+00  3.6336952E+01
 3.0864069E+00  3.6219028E+01
 3.0931385E+00  3.6210526E+01
 3.0998700E+00  3.5941116E+01
 3.1066017E+00  3.5820583E+01
 3.1133332E+00  3.5875214E+01
 3.1200647E+00  3.5772198E+01
 3.1267962E+00  3.5729568E+01
 3.1335278E+00  3.5556412E+01
 3.1402593E+00  3.5507694E+01
 3.1469908E+00  3.5333965E+01
 3.1537223E+00  3.5489925E+01
 3.1604538E+00  3.5243286E+01
 3.1671853E+00  3.5254330E+01
 3.1739168E+00  3.5032269E+01
 3.1806486E+00  3.4985756E+01
 3.1873801E+00  3.5062401E+01
 3.1941116E+00  3.4927563E+01
 3.2008431E+00  3.4599247E+01
 3.2075746E+00  3.4512993E+01
 3.2143061E+00  3.4470562E+01
 3.2210376E+00  3.4428288E+01
 3.2277691E+00  3.4524349E+01
 3.2345006E+00  3.4633648E+01
 3.2412322E+00  3.4411724E+01
 3.2479637E+00  3.4233036E+01
 3.2546952E+00  3.4422813E+01
 3.2614269E+00  3.4392193E+01
 3.2681584E+00  3.4273773E+01
 3.2748899E+00  3.3991455E+01
 3.2816215E+00  3.4049561E+01
 3.2883530E+00  3.3803646E+01
 3.2950845E+00  3.3875305E+01
 3.3018160E+00  3.3666172E+01
 3.3085475E+00  3.3705017E+01
 3.3152790E+00  3.3618610E+01
 3.3220105E+00  3.3378620E+01
 3.3287420E+00  3.3315895E+01
 3.3354738E+00  3.3192726E+01
 3.3422053E+00  3.3111736E+01
 3.3489368E+00  3.3307781E+01
 3.3556683E+00  3.3317333E+01
 3.3623998E+00  3.2999786E+01
 3.3691313E+00  3.2965721E+01
 3.3758628E+00  3.3113018E+01
 3.3825943E+00  3.2765133E+01
 3.3893259E+00  3.2649754E+01
 3.3960574E+00  3.2705189E+01
 3.4027889E+00  3.2520283E+01
 3.4095206E+00  3.2679886E+01
 3.4162521E+00  3.2404697E+01
 3.4229836E+00  3.2232807E+01
 3.4297152E+00  3.2232933E+01
 3.4364467E+00  3.2222618E+01
 3.4431782E+00  3.2070770E+01
 3.4499097E+00  3.2049015E+01
 3.4566412E+00  3.1815676E+01
 3.4633727E+00  3.1670975E+01
 3.4701042E+00  3.1941284E+01
 3.4768357E+00  3.1932447E+01
 3.4835672E+00  3.1869675E+01
 3.4902990E+00  3.1717133E+01
 3.4970305E+00  3.1536699E+01
 3.5037620E+00  3.1422478E+01
 3.5104935E+00  3.1579914E+01
 3.5172250E+00  3.1357483E+01
 3.5239565E+00  3.1338392E+01
 3.5306880E+00  3.1220669E+01
 3.5374196E+00  3.1331337E+01
 3.5441511E+00  3.1209291E+01
 3.5508826E+00  3.1035183E+01
 3.5576141E+00  3.0787817E+01
 3.5643458E+00  3.0934557E+01
 3.5710773E+00  3.0923481E+01
 3.5778089E+00  3.0976469E+01
 3.5845404E+00  3.1059885E+01
 3.5912719E+00  3.0829660E+01
 3.5980034E+00  3.0548706E+01
 3.6047349E+00  3.0624451E+01
 3.6114664E+00  3.0461290E+01
 3.6181979E+00  3.0441906E+01
 3.6249294E+00  3.0298258E+01
 3.6316609E+00  3.0247641E+01
 3.6383927E+00  3.0162363E+01
 3.6451242E+00  3.0342094E+01
 3.6518557E+00  3.0209318E+01
 3.6585872E+00  3.0143896E+01
 3.6653187E+00  3.0148256E+01
 3.6720502E+00  2.9903755E+01
 3.6787817E+00  3.0066761E+01
 3.6855133E+00  2.9709702E+01
 3.6922448E+00  2.9789312E+01
 3.6989763E+00  2.9779314E+01
 3.7057078E+00  2.9427519E+01
 3.7124393E+00  2.9375963E+01
 3.7191710E+00  2.9566280E+01
 3.7259026E+00  2.9335451E+01
 3.7326341E+00  2.9240648E+01
 3.7393656E+00  2.9309832E+01
 3.7460971E+00  2.9444942E+01
 3.7528286E+00  2.9432802E+01
 3.7595601E+00  2.9208252E+01
 3.7662916E+00  2.9128147E+01
 3.7730231E+00  2.9005547E+01
 3.7797546E+00  2.8922245E+01
 3.7864861E+00  2.8829914E+01
 3.7932179E+00  2.8867105E+01
 3.7999494E+00  2.8889568E+01
 3.8066809E+00  2.8821346E+01
 3.8134124E+00  2.8735210E+01
 3.8201439E+00  2.8667358E+01
 3.8268754E+00  2.8421053E+01
 3.8336070E+00  2.8417452E+01
 3.8403385E+00  2.8298649E+01
 3.8470700E+00  2.8338163E+01
 3.8538015E+00  2.8249344E+01
 3.8605330E+00  2.8391260E+01
 3.8672645E+00  2.8127190E+01
 3.8739963E+00  2.7947937E+01
 3.8807278E+00  2.7824755E+01
 3.8874593E+00  2.7839359E+01
 3.8941908E+00  2.7879711E+01
 3.9009223E+00  2.7919949E+01
 3.9076538E+00  2.7842731E+01
 3.9143853E+00  2.7824854E+01
 3.9211168E+00  2.7632565E+01
 3.9278483E+00  2.7959307E+01
 3.9345798E+00  2.7732082E+01
 3.9413114E+00  2.7786112E+01
 3.9480431E+00  2.7665915E+01
 3.9547746E+00  2.7339085E+01
 3.9615061E+00  2.7422123E+01
 3.9682376E+00  2.7424385E+01
 3.9749691E+00  2.7233557E+01
 3.9817007E+00  2.7149864E+01
 3.9884322E+00  2.7280834E+01
 3.9951637E+00  2.7138739E+01
 4.0018954E+00  2.7115017E+01
 4.0086269E+00  2.6992037E+01
 4.0153584E+00  2.7149803E+01
 4.0220900E+00  2.6929245E+01
 4.0288215E+00  2.6669657E+01
 4.0355530E+00  2.6765356E+01
 4.0422845E+00  2.6814724E+01
 4.0490160E+00  2.6733353E+01
 4.0557475E+00  2.6687506E+01
 4.0624790E+00  2.6574984E+01
 4.0692105E+00  2.6566540E+01
 4.0759420E+00  2.6646524E+01
 4.0826735E+00  2.6581135E+01
 4.0894051E+00  2.6618715E+01
 4.0961366E+00  2.6607616E+01
 4.1028681E+00  2.6463148E+01
 4.1095996E+00  2.6362003E+01
 4.1163311E+00  2.6199398E+01
 4.1230626E+00  2.6283049E+01
 4.1297941E+00  2.6167273E+01
 4.1365261E+00  2.6274225E+01
 4.1432576E+00  2.6002554E+01
 4.1499891E+00  2.5862936E+01
 4.1567206E+00  2.5973936E+01
 4.1634521E+00  2.5852633E+01
 4.1701837E+00  2.5835125E+01
 4.1769152E+00  2.5803751E+01
 4.1836467E+00  2.5841034E+01
 4.1903782E+00  2.5533749E+01
 4.1971097E+00  2.5781359E+01
 4.2038412E+00  2.5619080E+01
 4.2105727E+00  2.5436550E+01
 4.2173042E+00  2.5659876E+01
 4.2240357E+00  2.5631828E+01
 4.2307673E+00  2.5526026E+01
 4.2374988E+00  2.5498880E+01
 4.2442303E+00  2.5586655E+01
 4.2509618E+00  2.5439257E+01
 4.2576933E+00  2.5504053E+01
 4.2644248E+00  2.5401663E+01
 4.2711563E+00  2.5179152E+01
 4.2778878E+00  2.5296148E+01
 4.2846193E+00  2.5190626E+01
 4.2913513E+00  2.5229837E+01
 4.2980828E+00  2.5353334E+01
 4.3048143E+00  2.5329899E+01
 4.3115458E+00  2.5049139E+01
 4.3182774E+00  2.5149237E+01
 4.3250089E+00  2.5371786E+01
 4.3317404E+00  2.5212805E+01
 4.3384719E+00  2.5150351E+01
 4.3452034E+00  2.5283993E+01
 4.3519349E+00  2.5124271E+01
 4.3586664E+00  2.5016388E+01
 4.3653979E+00  2.4982704E+01
 4.3721294E+00  2.4952955E+01
 4.3788610E+00  2.4835226E+01
 4.3855925E+00  2.4848585E+01
 4.3923240E+00  2.4986462E+01
 4.3990555E+00  2.4826206E+01
 4.4057870E+00  2.4724068E+01
 4.4125185E+00  2.4929291E+01
 4.4192500E+00  2.4950871E+01
 4.4259815E+00  2.4851492E+01
 4.4327130E+00  2.4945114E+01
 4.4394445E+00  2.4744772E+01
 4.4461765E+00  2.4619286E+01
 4.4529080E+00  2.4499212E+01
 4.4596395E+00  2.4643456E+01
 4.4663711E+00  2.4669453E+01
 4.4731026E+00  2.4724426E+01
 4.4798341E+00  2.4732298E+01
 4.4865656E+00  2.4619965E+01
 4.4932971E+00  2.4572550E+01
 4.5000286E+00  2.4535416E+01
 4.5067601E+00  2.4465405E+01
 4.5134916E+00  2.4584301E+01
 4.5202231E+00  2.4679758E+01
 4.5269547E+00  2.4450943E+01
 4.5336862E+00  2.4221704E+01
 4.5404177E+00  2.4285347E+01
 4.5471492E+00  2.4305229E+01
 4.5538807E+00  2.4101599E+01
 4.5606122E+00  2.4049160E+01
 4.5673437E+00  2.4292164E+01
 4.5740752E+00  2.4223032E+01
 4.5808067E+00  2.4249743E+01
 4.5875382E+00  2.4398760E+01
 4.5942698E+00  2.4184162E+01
 4.6010017E+00  2.3976450E+01
 4.6077332E+00  2.3922607E+01
 4.6144648E+00  2.4044867E+01
 4.6211963E+00  2.3777809E+01
 4.6279278E+00  2.3898052E+01
 4.6346593E+00  2.3995108E+01
 4.6413908E+00  2.4032303E+01
 4.6481223E+00  2.3785236E+01
 4.6548538E+00  2.3834520E+01
 4.6615853E+00  2.3987772E+01
 4.6683168E+00  2.3905668E+01
 4.6750484E+00  2.3859022E+01
 4.6817799E+00  2.3803894E+01
 4.6885114E+00  2.4010506E+01
 4.6952429E+00  2.3772024E+01
 4.7019744E+00  2.3799294E+01
 4.7087059E+00  2.3491776E+01
 4.7154374E+00  2.3688229E+01
 4.7221689E+00  2.3500824E+01
 4.7289004E+00  2.3740250E+01
 4.7356319E+00  2.3572916E+01
 4.7423635E+00  2.3674908E+01
 4.7490954E+00  2.3680414E+01
 4.7558270E+00  2.3533159E+01
 4.7625585E+00  2.3349766E+01
 4.7692900E+00  2.3381132E+01
 4.7760215E+00  2.3438311E+01
 4.7827530E+00  2.3548437E+01
 4.7894845E+00  2.3371546E+01
 4.7962160E+00  2.3431175E+01
 4.8029475E+00  2.3439991E+01
 4.8096790E+00  2.3524748E+01
 4.8164105E+00  2.3261816E+01
 4.8231421E+00  2.3044888E+01
 4.8298736E+00  2.2985451E+01
 4.8366051E+00  2.3232626E+01
 4.8433366E+00  2.3356907E+01
 4.8500681E+00  2.3251268E+01
 4.8567996E+00  2.3295197E+01
 4.8635311E+00  2.3151581E+01
 4.8702626E+00  2.3002117E+01
 4.8769941E+00  2.3210396E+01
 4.8837256E+00  2.3122681E+01
 4.8904572E+00  2.3027390E+01
 4.8971887E+00  2.3056173E+01
 4.9039207E+00  2.2861755E+01
 4.9106522E+00  2.2911831E+01
 4.9173837E+00  2.2881153E+01
 4.9241152E+00  2.2855917E+01
 4.9308467E+00  2.2942223E+01
 4.9375782E+00  2.2865759E+01
 4.9443097E+00  2.2772459E+01
 4.9510412E+00  2.2869905E+01
 4.9577727E+00  2.2877232E+01
 4.9645042E+00  2.2646011E+01
 4.9712358E+00  2.2608667E+01
 4.9779673E+00  2.2753345E+01
 4.9846988E+00  2.2834610E+01
 4.9914303E+00  2.2710743E+01
 4.9981618E+00  2.2483072E+01
 5.0048933E+00  2.2417200E+01
 5.0116248E+00  2.2745422E+01
 5.0183563E+00  2.2665596E+01
 5.0250878E+00  2.2665308E+01
 5.0318193E+00  2.2321100E+01
 5.0385509E+00  2.2355188E+01
 5.0452824E+00  2.2503752E+01
 5.0520139E+00  2.2398056E+01
 5.0587459E+00  2.2174170E+01
 5.0654774E+00  2.2387062E+01
 5.0722089E+00  2.2522383E+01
 5.0789404E+00  2.2362209E+01
 5.0856719E+00  2.2276720E+01
 5.0924034E+00  2.2437603E+01
 5.0991349E+00  2.2287834E+01
 5.1058664E+00  2.2150465E+01
 5.1125979E+00  2.2160702E+01
 5.1193295E+00  2.2052706E+01
 5.1260610E+00  2.2155396E+01
 5.1327925E+00  2.2228416E+01
 5.1395240E+00  2.2072706E+01
 5.1462555E+00  2.2025436E+01
 5.1529870E+00  2.1909145E+01
 5.1597185E+00  2.2205420E+01
 5.1664500E+00  2.2240063E+01
 5.1731815E+00  2.2256275E+01
 5.1799130E+00  2.2121655E+01
 5.1866446E+00  2.1865589E+01
 5.1933761E+00  2.2250530E+01
 5.2001076E+00  2.2195349E+01
 5.2068391E+00  2.2261505E+01
 5.2135711E+00  2.2034569E+01
 5.2203026E+00  2.1828209E+01
 5.2270341E+00  2.1948252E+01
 5.2337656E+00  2.1972933E+01
 5.2404971E+00  2.1825010E+01
 5.2472286E+00  2.1710154E+01
 5.2539601E+00  2.1792027E+01
 5.2606916E+00  2.1785883E+01
 5.2674232E+00  2.1723635E+01
 5.2741547E+00  2.1892197E+01
 5.2808862E+00  2.1838898E+01
 5.2876177E+00  2.1751465E+01
 5.2943492E+00  2.1914726E+01
 5.3010807E+00  2.1743862E+01
 5.3078122E+00  2.1597214E+01
 5.3145437E+00  2.1833187E+01
 5.3212752E+00  2.1625967E+01
 5.3280067E+00  2.1747513E+01
 5.3347383E+00  2.1723700E+01
 5.3414698E+00  2.1651794E+01
 5.3482013E+00  2.1572622E+01
 5.3549328E+00  2.1779560E+01
 5.3616648E+00  2.1628824E+01
 5.3683963E+00  2.1663944E+01
 5.3751278E+00  2.1523081E+01
 5.3818593E+00  2.1573036E+01
 5.3885908E+00  2.1634094E+01
 5.3953223E+00  2.1484591E+01
 5.4020538E+00  2.1453573E+01
 5.4087853E+00  2.1622498E+01
 5.4155169E+00  2.1553209E+01
 5.4222484E+00  2.1238314E+01
 5.4289799E+00  2.1306343E+01
 5.4357114E+00  2.1207106E+01
 5.4424429E+00  2.1237518E+01
 5.4491744E+00  2.1229467E+01
 5.4559059E+00  2.1186607E+01
 5.4626374E+00  2.1117987E+01
 5.4693689E+00  2.1151085E+01
 5.4761004E+00  2.1106562E+01
 5.4828320E+00  2.1248480E+01
 5.4895635E+00  2.1147379E+01
 5.4962950E+00  2.1154444E+01
 5.5030265E+00  2.1001312E+01
 5.5097580E+00  2.1066732E+01
 5.5164900E+00  2.1010733E+01
 5.5232215E+00  2.0908627E+01
 5.5299530E+00  2.1152237E+01
 5.5366845E+00  2.1145311E+01
 5.5434160E+00  2.0852551E+01
 5.5501475E+00  2.0954140E+01
 5.5568790E+00  2.1023535E+01
 5.5636106E+00  2.0999521E+01
 5.5703421E+00  2.1041531E+01
 5.5770736E+00  2.0782700E+01
 5.5838051E+00  2.0791243E+01
 5.5905366E+00  2.0773588E+01
 5.5972681E+00  2.0695719E+01
 5.6039996E+00  2.0699129E+01
 5.6107311E+00  2.0293438E+01
 5.6174626E+00  2.0203156E+01
 5.6241941E+00  2.0502556E+01
 5.6309257E+00  2.0600445E+01
 5.6376572E+00  2.0400240E+01
 5.6443887E+00  2.0510832E+01
 5.6511202E+00  2.0487000E+01
 5.6578517E+00  2.0245630E+01
 5.6645832E+00  2.0457163E+01
 5.6713152E+00  2.0419521E+01
 5.6780467E+00  2.0160091E+01
 5.6847782E+00  2.0061821E+01
 5.6915097E+00  2.0140238E+01
 5.6982412E+00  2.0300858E+01
 5.7049727E+00  1.9983326E+01
 5.7117043E+00  1.9905043E+01
 5.7184358E+00  1.9953522E+01
 5.7251673E+00  1.9639194E+01
 5.7318988E+00  1.9626699E+01
 5.7386303E+00  1.9812384E+01
 5.7453618E+00  1.9702686E+01
 5.7520933E+00  1.9697317E+01
 5.7588248E+00  1.9295349E+01
 5.7655563E+00  1.9319176E+01
 5.7722878E+00  1.9330938E+01
 5.7790194E+00  1.9194025E+01
 5.7857509E+00  1.9258917E+01
 5.7924824E+00  1.8837582E+01
 5.7992139E+00  1.8769396E+01
 5.8059454E+00  1.8912117E+01
 5.8126769E+00  1.8750204E+01
 5.8194084E+00  1.8848003E+01
 5.8261404E+00  1.8783724E+01
 5.8328719E+00  1.8664507E+01
 5.8396034E+00  1.8561777E+01
 5.8463349E+00  1.8687620E+01
 5.8530664E+00  1.8541439E+01
 5.8597980E+00  1.8671074E+01
 5.8665295E+00  1.8603493E+01
 5.8732610E+00  1.8454264E+01
 5.8799925E+00  1.8605780E+01
 5.8867240E+00  1.8418102E+01
 5.8934555E+00  1.8472971E+01
 5.9001870E+00  1.7749014E+01
 5.9069185E+00  1.7850307E+01
 5.9136500E+00  1.7763012E+01
 5.9203815E+00  1.7663710E+01
 5.9271131E+00  1.7968798E+01
 5.9338446E+00  1.7964840E+01
 5.9405761E+00  1.7622145E+01
 5.9473076E+00  1.7503677E+01
 5.9540391E+00  1.7777546E+01
 5.9607706E+00  1.7253717E+01
 5.9675021E+00  1.7236712E+01
 5.9742341E+00  1.7333036E+01
 5.9809656E+00  1.7070122E+01
 5.9876971E+00  1.6836838E+01
 5.9944286E+00  1.6979822E+01
 6.0011601E+00  1.6989649E+01
 6.0078917E+00  1.6789856E+01
 6.0146232E+00  1.6778023E+01
 6.0213547E+00  1.6757029E+01
 6.0280862E+00  1.6255207E+01
 6.0348177E+00  1.6071226E+01
 6.0415492E+00  1.5818281E+01
 6.0482807E+00  1.5921740E+01
 6.0550122E+00  1.6145647E+01
 6.0617437E+00  1.5885143E+01
 6.0684752E+00  1.5646456E+01
 6.0752068E+00  1.5529342E+01
 6.0819383E+00  1.5382606E+01
 6.0886698E+00  1.5682974E+01
 6.0954013E+00  1.5225632E+01
 6.1021328E+00  1.5605385E+01
 6.1088643E+00  1.5397289E+01
 6.1155958E+00  1.5746516E+01
 6.1223273E+00  1.5382844E+01
 6.1290593E+00  1.5143277E+01
 6.1357908E+00  1.5141068E+01
 6.1425223E+00  1.5482873E+01
 6.1492538E+00  1.5433892E+01
 6.1559854E+00  1.5168164E+01
 6.1627169E+00  1.4980871E+01
 6.1694484E+00  1.5040726E+01
 6.1761799E+00  1.4942212E+01
 6.1829114E+00  1.4663289E+01
 6.1896429E+00  1.4926684E+01
 6.1963744E+00  1.4734024E+01
 6.2031059E+00  1.4608134E+01
 6.2098374E+00  1.4231241E+01
 6.2165689E+00  1.4351797E+01
 6.2233005E+00  1.4279946E+01
 6.2300320E+00  1.4141288E+01
 6.2367635E+00  1.4006265E+01
 6.2434950E+00  1.4064017E+01
 6.2502265E+00  1.3689124E+01
 6.2569580E+00  1.3496237E+01
 6.2636895E+00  1.3453723E+01
 6.2704210E+00  1.3753974E+01
 6.2771525E+00  1.3642730E+01
 6.2838845E+00  1.3628060E+01
 6.2906160E+00  1.3548555E+01
 6.2973475E+00  1.3291796E+01
 6.3040791E+00  1.3161134E+01
 6.3108106E+00  1.3128736E+01
 6.3175421E+00  1.2787746E+01
 6.3242736E+00  1.3355517E+01
 6.3310051E+00  1.3017950E+01
 6.3377366E+00  1.2966152E+01
 6.3444681E+00  1.2929801E+01
 6.3511996E+00  1.2743669E+01
 6.3579311E+00  1.2588358E+01
 6.3646626E+00  1.2914846E+01
 6.3713942E+00  1.2917482E+01
 6.3781257E+00  1.2558512E+01
 6.3848572E+00  1.2606270E+01
 6.3915887E+00  1.2422612E+01
 6.3983202E+00  1.2126291E+01
 6.4050517E+00  1.2288935E+01
 6.4117832E+00  1.2463532E+01
 6.4185147E+00  1.2125094E+01
 6.4252462E+00  1.2542613E+01
 6.4319777E+00  1.2192822E+01
 6.4387097E+00  1.3072765E+01
 6.4454412E+00  1.2714626E+01
 6.4521728E+00  1.2255542E+01
 6.4589043E+00  1.1448207E+01
 6.4656358E+00  1.3608669E+01
 6.4723673E+00  1.2472588E+01
 6.4790988E+00  1.0403171E+01
 6.4858303E+00  0.0000000E+00
 6.4925618E+00  0.0000000E+00
 6.4992933E+00  0.0000000E+00
 6.5060248E+00  0.0000000E+00
 6.5127563E+00  0.0000000E+00
 6.5194879E+00  0.0000000E+00
 6.5262194E+00  0.0000000E+00
 6.5329509E+00  0.0000000E+00
 6.5396824E+00  0.0000000E+00
 6.5464139E+00  0.0000000E+00
 6.5531454E+00  0.0000000E+00
 6.5598769E+00  0.0000000E+00
 6.5666084E+00  0.0000000E+00
 6.5733399E+00  0.0000000E+00
 6.5800714E+00  0.0000000E+00
 6.5868034E+00  0.0000000E+00
 6.5935349E+00  0.0000000E+00
 6.6002665E+00  0.0000000E+00
 6.6069980E+00  0.0000000E+00
 6.6137295E+00  0.0000000E+00
 6.6204610E+00  0.0000000E+00
 6.6271925E+00  0.0000000E+00
 6.6339240E+00  0.0000000E+00
 6.6406555E+00  0.0000000E+00
 6.6473870E+00  0.0000000E+00
 6.6541185E+00  0.0000000E+00
 6.6608500E+00  0.0000000E+00
 6.6675816E+00  0.0000000E+00
 6.6743131E+00  0.0000000E+00
 6.6810446E+00  0.0000000E+00
 6.6877761E+00  0.0000000E+00
 6.6945076E+00  0.0000000E+00
 6.7012391E+00  0.0000000E+00
 6.7079706E+00  0.0000000E+00
 6.7147021E+00  0.0000000E+00
 6.7214336E+00  0.0000000E+00
 6.7281651E+00  0.0000000E+00
 6.7348967E+00  0.0000000E+00
 6.7416286E+00  0.0000000E+00
