part_00002.tif: Q-Space Scan
Q (Inverse Nanometres)

       1002
 3.3657656E-03  0.0000000E+00
 1.0097297E-02  0.0000000E+00
 1.6828828E-02  0.0000000E+00
 2.3560358E-02  0.0000000E+00
 3.0291891E-02  0.0000000E+00
 3.7023421E-02  0.0000000E+00
 4.3754954E-02  0.0000000E+00
 5.0486483E-02  0.0000000E+00
 5.7218015E-02  0.0000000E+00
 6.3949548E-02  0.0000000E+00
 7.0681080E-02  0.0000000E+00
 7.7412605E-02  0.0000000E+00
 8.4144138E-02  0.0000000E+00
 9.0875670E-02  1.0761208E+06
 9.7607203E-02  1.0775570E+06
 1.0433874E-01  1.0721838E+06
 1.1107026E-01  9.5532444E+05
 1.1780179E-01  7.4247981E+05
 1.2453333E-01  5.7756738E+05
 1.3126485E-01  4.5694734E+05
 1.3799639E-01  3.6589184E+05
 1.4472792E-01  2.9716950E+05
 1.5145946E-01  2.4726658E+05
 1.5819098E-01  2.0670241E+05
 1.6492251E-01  1.7451683E+05
 1.7165405E-01  1.4727709E+05
 1.7838557E-01  1.2550730E+05
 1.8511711E-01  1.0715889E+05
 1.9184864E-01  9.1887789E+04
 1.9858016E-01  7.9478406E+04
 2.0531170E-01  6.8806227E+04
 2.1204323E-01  5.9912867E+04
 2.1877477E-01  5.2353070E+04
 2.2550629E-01  4.6028156E+04
 2.3223783E-01  4.0693199E+04
 2.3896936E-01  3.6051199E+04
 2.4570088E-01  3.2170930E+04
 2.5243241E-01  2.8664277E+04
 2.5916395E-01  2.5666037E+04
 2.6589549E-01  2.3095350E+04
 2.7262700E-01  2.0835787E+04
 2.7935854E-01  1.8836531E+04
 2.8609008E-01  1.7062809E+04
 2.9282162E-01  1.5465670E+04
 2.9955313E-01  1.4093771E+04
 3.0628467E-01  1.2851182E+04
 3.1301621E-01  1.1757709E+04
 3.1974772E-01  1.0790563E+04
 3.2647926E-01  9.8968203E+03
 3.3321080E-01  9.0990811E+03
 3.3994234E-01  8.3833223E+03
 3.4667385E-01  7.7585518E+03
 3.5340539E-01  7.1618721E+03
 3.6013693E-01  6.6205537E+03
 3.6686844E-01  6.1466055E+03
 3.7359998E-01  5.7136450E+03
 3.8033152E-01  5.3150444E+03
 3.8706303E-01  4.9523013E+03
 3.9379457E-01  4.6139072E+03
 4.0052611E-01  4.3152192E+03
 4.0725765E-01  4.0276907E+03
 4.1398916E-01  3.7808723E+03
 4.2072070E-01  3.5443645E+03
 4.2745224E-01  3.3256433E+03
 4.3418375E-01  3.1314602E+03
 4.4091529E-01  2.9380115E+03
 4.4764683E-01  2.7730325E+03
 4.5437834E-01  2.6178552E+03
 4.6110988E-01  2.4740632E+03
 4.6784142E-01  2.3354958E+03
 4.7457296E-01  2.2008792E+03
 4.8130447E-01  2.0878303E+03
 4.8803601E-01  1.9763599E+03
 4.9476755E-01  1.8776807E+03
 5.0149906E-01  1.7807460E+03
 5.0823063E-01  1.6906196E+03
 5.1496214E-01  1.6071230E+03
 5.2169365E-01  1.5299625E+03
 5.2842522E-01  1.4576805E+03
 5.3515673E-01  1.3863182E+03
 5.4188824E-01  1.3233497E+03
 5.4861981E-01  1.2609535E+03
 5.5535132E-01  1.2078696E+03
 5.6208283E-01  1.1547075E+03
 5.6881440E-01  1.1037982E+03
 5.7554591E-01  1.0543077E+03
 5.8227742E-01  1.0128494E+03
 5.8900899E-01  9.7146631E+02
 5.9574050E-01  9.2709326E+02
 6.0247201E-01  8.9069708E+02
 6.0920358E-01  8.5202094E+02
 6.1593509E-01  8.2171594E+02
 6.2266666E-01  7.8997180E+02
 6.2939817E-01  7.6192072E+02
 6.3612968E-01  7.3070050E+02
 6.4286125E-01  7.0497589E+02
 6.4959276E-01  6.8071588E+02
 6.5632427E-01  6.5626624E+02
 6.6305584E-01  6.3180481E+02
 6.6978735E-01  6.1036621E+02
 6.7651886E-01  5.9233759E+02
 6.8325043E-01  5.7106744E+02
 6.8998194E-01  5.4986639E+02
 6.9671345E-01  5.3193243E+02
 7.0344502E-01  5.1498407E+02
 7.1017653E-01  4.9938083E+02
 7.1690804E-01  4.8348141E+02
 7.2363961E-01  4.6828665E+02
 7.3037112E-01  4.5406894E+02
 7.3710263E-01  4.4154523E+02
 7.4383420E-01  4.2827505E+02
 7.5056571E-01  4.1484094E+02
 7.5729728E-01  4.0211414E+02
 7.6402879E-01  3.9045847E+02
 7.7076030E-01  3.7845120E+02
 7.7749187E-01  3.6863467E+02
 7.8422338E-01  3.6049411E+02
 7.9095489E-01  3.4899762E+02
 7.9768646E-01  3.4066116E+02
 8.0441797E-01  3.3132983E+02
 8.1114948E-01  3.2289444E+02
 8.1788105E-01  3.1468420E+02
 8.2461256E-01  3.0700958E+02
 8.3134407E-01  2.9961548E+02
 8.3807564E-01  2.9144147E+02
 8.4480715E-01  2.8499112E+02
 8.5153866E-01  2.7860147E+02
 8.5827023E-01  2.7182449E+02
 8.6500174E-01  2.6413824E+02
 8.7173331E-01  2.5865021E+02
 8.7846482E-01  2.5193301E+02
 8.8519633E-01  2.4622197E+02
 8.9192790E-01  2.4132614E+02
 8.9865941E-01  2.3692488E+02
 9.0539092E-01  2.3262473E+02
 9.1212249E-01  2.2721216E+02
 9.1885400E-01  2.2276170E+02
 9.2558551E-01  2.1806470E+02
 9.3231708E-01  2.1392715E+02
 9.3904859E-01  2.1023045E+02
 9.4578010E-01  2.0550768E+02
 9.5251167E-01  2.0132574E+02
 9.5924318E-01  1.9733516E+02
 9.6597469E-01  1.9276166E+02
 9.7270626E-01  1.8967909E+02
 9.7943777E-01  1.8736653E+02
 9.8616934E-01  1.8467836E+02
 9.9290085E-01  1.7998941E+02
 9.9963236E-01  1.7701300E+02
 1.0063639E+00  1.7334605E+02
 1.0130954E+00  1.7031157E+02
 1.0198270E+00  1.6709731E+02
 1.0265585E+00  1.6477591E+02
 1.0332900E+00  1.6326451E+02
 1.0400215E+00  1.5949075E+02
 1.0467530E+00  1.5604300E+02
 1.0534847E+00  1.5453395E+02
 1.0602162E+00  1.5131976E+02
 1.0669477E+00  1.4981894E+02
 1.0736792E+00  1.4774995E+02
 1.0804107E+00  1.4548997E+02
 1.0871422E+00  1.4345085E+02
 1.0938739E+00  1.4096217E+02
 1.1006054E+00  1.3822250E+02
 1.1073369E+00  1.3617781E+02
 1.1140684E+00  1.3452524E+02
 1.1207999E+00  1.3290256E+02
 1.1275314E+00  1.3205460E+02
 1.1342630E+00  1.3036450E+02
 1.1409945E+00  1.2805206E+02
 1.1477261E+00  1.2602454E+02
 1.1544576E+00  1.2422720E+02
 1.1611891E+00  1.2312924E+02
 1.1679206E+00  1.2178095E+02
 1.1746522E+00  1.2041351E+02
 1.1813837E+00  1.1951951E+02
 1.1881152E+00  1.1835835E+02
 1.1948467E+00  1.1716087E+02
 1.2015783E+00  1.1656452E+02
 1.2083099E+00  1.1509187E+02
 1.2150414E+00  1.1409017E+02
 1.2217729E+00  1.1272717E+02
 1.2285044E+00  1.1112045E+02
 1.2352359E+00  1.0992538E+02
 1.2419674E+00  1.0980009E+02
 1.2486991E+00  1.0858448E+02
 1.2554306E+00  1.0782088E+02
 1.2621621E+00  1.0653784E+02
 1.2688936E+00  1.0494543E+02
 1.2756251E+00  1.0491161E+02
 1.2823566E+00  1.0429354E+02
 1.2890882E+00  1.0230100E+02
 1.2958198E+00  1.0081922E+02
 1.3025513E+00  9.9033821E+01
 1.3092828E+00  9.8399277E+01
 1.3160143E+00  9.6884964E+01
 1.3227459E+00  9.5485893E+01
 1.3294774E+00  9.4667603E+01
 1.3362089E+00  9.4293152E+01
 1.3429404E+00  9.3430641E+01
 1.3496720E+00  9.1839630E+01
 1.3564035E+00  9.1860786E+01
 1.3631351E+00  9.0753456E+01
 1.3698666E+00  8.9163109E+01
 1.3765981E+00  8.8748825E+01
 1.3833296E+00  8.8292366E+01
 1.3900611E+00  8.7274002E+01
 1.3967927E+00  8.6551453E+01
 1.4035243E+00  8.5779060E+01
 1.4102558E+00  8.5039200E+01
 1.4169873E+00  8.4070473E+01
 1.4237188E+00  8.3310646E+01
 1.4304503E+00  8.2726646E+01
 1.4371819E+00  8.2298752E+01
 1.4439135E+00  8.1283211E+01
 1.4506450E+00  8.0309631E+01
 1.4573765E+00  8.0486641E+01
 1.4641080E+00  7.9708092E+01
 1.4708395E+00  7.8831787E+01
 1.4775711E+00  7.8635597E+01
 1.4843026E+00  7.7681686E+01
 1.4910342E+00  7.7247139E+01
 1.4977657E+00  7.6329323E+01
 1.5044972E+00  7.5760185E+01
 1.5112287E+00  7.5678406E+01
 1.5179603E+00  7.5362083E+01
 1.5246918E+00  7.4741241E+01
 1.5314233E+00  7.3761177E+01
 1.5381548E+00  7.2904495E+01
 1.5448864E+00  7.3107330E+01
 1.5516180E+00  7.3290169E+01
 1.5583495E+00  7.2036041E+01
 1.5650810E+00  7.1221313E+01
 1.5718125E+00  7.0827072E+01
 1.5785440E+00  7.0324486E+01
 1.5852755E+00  7.0000221E+01
 1.5920072E+00  6.9795654E+01
 1.5987387E+00  6.9061569E+01
 1.6054702E+00  6.9414246E+01
 1.6122017E+00  6.9039101E+01
 1.6189332E+00  6.8495819E+01
 1.6256647E+00  6.7803734E+01
 1.6323963E+00  6.7567490E+01
 1.6391279E+00  6.7176430E+01
 1.6458594E+00  6.6117119E+01
 1.6525909E+00  6.6079704E+01
 1.6593224E+00  6.5603676E+01
 1.6660540E+00  6.5586555E+01
 1.6727855E+00  6.5655884E+01
 1.6795170E+00  6.5506363E+01
 1.6862485E+00  6.5406601E+01
 1.6929801E+00  6.4653915E+01
 1.6997116E+00  6.4706421E+01
 1.7064432E+00  6.3842171E+01
 1.7131747E+00  6.3646694E+01
 1.7199062E+00  6.3454105E+01
 1.7266377E+00  6.3510185E+01
 1.7333692E+00  6.2421429E+01
 1.7401007E+00  6.1886772E+01
 1.7468324E+00  6.1873943E+01
 1.7535639E+00  6.2040680E+01
 1.7602954E+00  6.1582291E+01
 1.7670269E+00  6.1078030E+01
 1.7737584E+00  6.1094894E+01
 1.7804899E+00  6.0722122E+01
 1.7872216E+00  6.0470535E+01
 1.7939531E+00  5.9947063E+01
 1.8006846E+00  5.9841461E+01
 1.8074161E+00  5.9284554E+01
 1.8141476E+00  5.9001469E+01
 1.8208792E+00  5.8986885E+01
 1.8276107E+00  5.8649899E+01
 1.8343422E+00  5.8522488E+01
 1.8410738E+00  5.8402020E+01
 1.8478053E+00  5.7883160E+01
 1.8545368E+00  5.7581429E+01
 1.8612684E+00  5.7490028E+01
 1.8679999E+00  5.7404358E+01
 1.8747314E+00  5.7417305E+01
 1.8814629E+00  5.6606575E+01
 1.8881944E+00  5.6600811E+01
 1.8949260E+00  5.6496593E+01
 1.9016576E+00  5.6700821E+01
 1.9083891E+00  5.6453388E+01
 1.9151206E+00  5.6039284E+01
 1.9218521E+00  5.5761269E+01
 1.9285836E+00  5.5358337E+01
 1.9353153E+00  5.5405510E+01
 1.9420468E+00  5.5113583E+01
 1.9487783E+00  5.4765484E+01
 1.9555098E+00  5.4188511E+01
 1.9622413E+00  5.4507847E+01
 1.9689728E+00  5.4300304E+01
 1.9757044E+00  5.4045513E+01
 1.9824359E+00  5.3745388E+01
 1.9891675E+00  5.3697170E+01
 1.9958990E+00  5.3439911E+01
 2.0026305E+00  5.3339970E+01
 2.0093620E+00  5.3317226E+01
 2.0160935E+00  5.3077999E+01
 2.0228250E+00  5.2810318E+01
 2.0295565E+00  5.2678833E+01
 2.0362883E+00  5.2671589E+01
 2.0430198E+00  5.2156071E+01
 2.0497513E+00  5.2165215E+01
 2.0564828E+00  5.2301430E+01
 2.0632143E+00  5.1674236E+01
 2.0699458E+00  5.1798214E+01
 2.0766773E+00  5.1473049E+01
 2.0834088E+00  5.1368153E+01
 2.0901403E+00  5.1658485E+01
 2.0968719E+00  5.1601147E+01
 2.1036034E+00  5.1232597E+01
 2.1103351E+00  5.1207558E+01
 2.1170666E+00  5.0823624E+01
 2.1237981E+00  5.0797600E+01
 2.1305296E+00  5.0112991E+01
 2.1372612E+00  5.0478367E+01
 2.1439927E+00  5.0486137E+01
 2.1507242E+00  5.0108002E+01
 2.1574557E+00  5.0025089E+01
 2.1641872E+00  4.9672802E+01
 2.1709187E+00  4.9555420E+01
 2.1776502E+00  4.9543957E+01
 2.1843820E+00  4.9427353E+01
 2.1911135E+00  4.9227253E+01
 2.1978450E+00  4.9292553E+01
 2.2045765E+00  4.9140499E+01
 2.2113080E+00  4.8851341E+01
 2.2180395E+00  4.8556721E+01
 2.2247710E+00  4.8809757E+01
 2.2315025E+00  4.8539810E+01
 2.2382340E+00  4.8307899E+01
 2.2449656E+00  4.8434937E+01
 2.2516971E+00  4.8285702E+01
 2.2584286E+00  4.8210285E+01
 2.2651603E+00  4.8027195E+01
 2.2718918E+00  4.8047283E+01
 2.2786233E+00  4.7972244E+01
 2.2853549E+00  4.7811722E+01
 2.2920864E+00  4.7347378E+01
 2.2988179E+00  4.7103512E+01
 2.3055494E+00  4.7505886E+01
 2.3122809E+00  4.7383469E+01
 2.3190124E+00  4.7156357E+01
 2.3257439E+00  4.6932987E+01
 2.3324754E+00  4.7147182E+01
 2.3392072E+00  4.6938644E+01
 2.3459387E+00  4.6661240E+01
 2.3526702E+00  4.6575905E+01
 2.3594017E+00  4.6353344E+01
 2.3661332E+00  4.6276760E+01
 2.3728647E+00  4.6219494E+01
 2.3795962E+00  4.6008358E+01
 2.3863277E+00  4.5554501E+01
 2.3930593E+00  4.5671627E+01
 2.3997908E+00  4.5827168E+01
 2.4065223E+00  4.5726856E+01
 2.4132540E+00  4.5794647E+01
 2.4199855E+00  4.5829403E+01
 2.4267170E+00  4.5444443E+01
 2.4334486E+00  4.5387775E+01
 2.4401801E+00  4.5346203E+01
 2.4469116E+00  4.5144382E+01
 2.4536431E+00  4.5146687E+01
 2.4603746E+00  4.5001205E+01
 2.4671061E+00  4.4884598E+01
 2.4738376E+00  4.4796310E+01
 2.4805691E+00  4.4465607E+01
 2.4873006E+00  4.4469219E+01
 2.4940324E+00  4.4196491E+01
 2.5007639E+00  4.4181011E+01
 2.5074954E+00  4.4393524E+01
 2.5142269E+00  4.4289680E+01
 2.5209584E+00  4.4043053E+01
 2.5276899E+00  4.3901302E+01
 2.5344214E+00  4.3874054E+01
 2.5411530E+00  4.3665554E+01
 2.5478845E+00  4.3388420E+01
 2.5546160E+00  4.3790184E+01
 2.5613475E+00  4.3569141E+01
 2.5680792E+00  4.3318325E+01
 2.5748107E+00  4.3269760E+01
 2.5815423E+00  4.3473553E+01
 2.5882738E+00  4.3282822E+01
 2.5950053E+00  4.3253937E+01
 2.6017368E+00  4.2645622E+01
 2.6084683E+00  4.2697632E+01
 2.6151998E+00  4.2928516E+01
 2.6219313E+00  4.2749279E+01
 2.6286628E+00  4.2752495E+01
 2.6353943E+00  4.2930347E+01
 2.6421258E+00  4.3064030E+01
 2.6488576E+00  4.2758965E+01
 2.6555891E+00  4.2640190E+01
 2.6623206E+00  4.2898983E+01
 2.6690521E+00  4.2917786E+01
 2.6757836E+00  4.2885323E+01
 2.6825151E+00  4.2723049E+01
 2.6892467E+00  4.2578720E+01
 2.6959782E+00  4.2569153E+01
 2.7027097E+00  4.2616295E+01
 2.7094412E+00  4.2688301E+01
 2.7161727E+00  4.2521759E+01
 2.7229044E+00  4.2195648E+01
 2.7296360E+00  4.1549786E+01
 2.7363675E+00  4.1482563E+01
 2.7430990E+00  4.1572517E+01
 2.7498305E+00  4.1088398E+01
 2.7565620E+00  4.1189911E+01
 2.7632935E+00  4.1324409E+01
 2.7700250E+00  4.0877384E+01
 2.7767565E+00  4.0428650E+01
 2.7834880E+00  4.0570671E+01
 2.7902195E+00  4.0259422E+01
 2.7969513E+00  4.0207874E+01
 2.8036828E+00  4.0037037E+01
 2.8104143E+00  3.9937580E+01
 2.8171458E+00  3.9914345E+01
 2.8238773E+00  4.0150581E+01
 2.8306088E+00  3.9629086E+01
 2.8373404E+00  3.9673622E+01
 2.8440719E+00  3.9273983E+01
 2.8508034E+00  3.8921970E+01
 2.8575349E+00  3.9186657E+01
 2.8642664E+00  3.9069851E+01
 2.8709979E+00  3.9008423E+01
 2.8777297E+00  3.8815899E+01
 2.8844612E+00  3.8652985E+01
 2.8911927E+00  3.8511364E+01
 2.8979242E+00  3.8434616E+01
 2.9046557E+00  3.8485962E+01
 2.9113872E+00  3.8535236E+01
 2.9181187E+00  3.8386349E+01
 2.9248502E+00  3.8077641E+01
 2.9315817E+00  3.8069462E+01
 2.9383132E+00  3.7991947E+01
 2.9450448E+00  3.8110344E+01
 2.9517765E+00  3.7955772E+01
 2.9585080E+00  3.7951725E+01
 2.9652395E+00  3.7783592E+01
 2.9719710E+00  3.7436382E+01
 2.9787025E+00  3.7225697E+01
 2.9854341E+00  3.7332050E+01
 2.9921656E+00  3.7207771E+01
 2.9988971E+00  3.7406773E+01
 3.0056286E+00  3.7442123E+01
 3.0123601E+00  3.7040215E+01
 3.0190916E+00  3.6909550E+01
 3.0258234E+00  3.6869709E+01
 3.0325549E+00  3.6948330E+01
 3.0392864E+00  3.6926395E+01
 3.0460179E+00  3.6619984E+01
 3.0527494E+00  3.6509193E+01
 3.0594809E+00  3.6362148E+01
 3.0662124E+00  3.6420544E+01
 3.0729439E+00  3.6383274E+01
 3.0796754E+00  3.6393723E+01
 3.0864069E+00  3.6433765E+01
 3.0931385E+00  3.6085739E+01
 3.0998700E+00  3.6015884E+01
 3.1066017E+00  3.6044437E+01
 3.1133332E+00  3.5740681E+01
 3.1200647E+00  3.5750198E+01
 3.1267962E+00  3.5795200E+01
 3.1335278E+00  3.5855888E+01
 3.1402593E+00  3.5648605E+01
 3.1469908E+00  3.5593410E+01
 3.1537223E+00  3.5379482E+01
 3.1604538E+00  3.5551109E+01
 3.1671853E+00  3.5470074E+01
 3.1739168E+00  3.4906883E+01
 3.1806486E+00  3.5379654E+01
 3.1873801E+00  3.5085670E+01
 3.1941116E+00  3.5236443E+01
 3.2008431E+00  3.4626663E+01
 3.2075746E+00  3.4523834E+01
 3.2143061E+00  3.4737629E+01
 3.2210376E+00  3.4796043E+01
 3.2277691E+00  3.4597431E+01
 3.2345006E+00  3.4617401E+01
 3.2412322E+00  3.4774902E+01
 3.2479637E+00  3.4582684E+01
 3.2546952E+00  3.4212841E+01
 3.2614269E+00  3.4206444E+01
 3.2681584E+00  3.4092640E+01
 3.2748899E+00  3.3738842E+01
 3.2816215E+00  3.3846325E+01
 3.2883530E+00  3.4033611E+01
 3.2950845E+00  3.3814201E+01
 3.3018160E+00  3.3742622E+01
 3.3085475E+00  3.3715008E+01
 3.3152790E+00  3.3574894E+01
 3.3220105E+00  3.3663410E+01
 3.3287420E+00  3.3473366E+01
 3.3354738E+00  3.3594170E+01
 3.3422053E+00  3.3260487E+01
 3.3489368E+00  3.3248543E+01
 3.3556683E+00  3.3264645E+01
 3.3623998E+00  3.3158329E+01
 3.3691313E+00  3.3132751E+01
 3.3758628E+00  3.2901066E+01
 3.3825943E+00  3.2994968E+01
 3.3893259E+00  3.2825302E+01
 3.3960574E+00  3.2687328E+01
 3.4027889E+00  3.2607708E+01
 3.4095206E+00  3.2414860E+01
 3.4162521E+00  3.2401424E+01
 3.4229836E+00  3.2184238E+01
 3.4297152E+00  3.2314388E+01
 3.4364467E+00  3.2489815E+01
 3.4431782E+00  3.2301567E+01
 3.4499097E+00  3.2069202E+01
 3.4566412E+00  3.2304901E+01
 3.4633727E+00  3.2229790E+01
 3.4701042E+00  3.1884686E+01
 3.4768357E+00  3.1685026E+01
 3.4835672E+00  3.1683340E+01
 3.4902990E+00  3.1796509E+01
 3.4970305E+00  3.1802517E+01
 3.5037620E+00  3.1790512E+01
 3.5104935E+00  3.1715183E+01
 3.5172250E+00  3.1751209E+01
 3.5239565E+00  3.1714445E+01
 3.5306880E+00  3.1255295E+01
 3.5374196E+00  3.1376942E+01
 3.5441511E+00  3.1239061E+01
 3.5508826E+00  3.1115499E+01
 3.5576141E+00  3.0987400E+01
 3.5643458E+00  3.1156179E+01
 3.5710773E+00  3.0931892E+01
 3.5778089E+00  3.0701351E+01
 3.5845404E+00  3.0738903E+01
 3.5912719E+00  3.0551371E+01
 3.5980034E+00  3.0280203E+01
 3.6047349E+00  3.0353622E+01
 3.6114664E+00  3.0517879E+01
 3.6181979E+00  3.0522804E+01
 3.6249294E+00  3.0477327E+01
 3.6316609E+00  3.0277962E+01
 3.6383927E+00  3.0056192E+01
 3.6451242E+00  3.0029104E+01
 3.6518557E+00  2.9928375E+01
 3.6585872E+00  3.0112206E+01
 3.6653187E+00  3.0071352E+01
 3.6720502E+00  2.9981489E+01
 3.6787817E+00  2.9957699E+01
 3.6855133E+00  2.9767811E+01
 3.6922448E+00  2.9608541E+01
 3.6989763E+00  2.9431538E+01
 3.7057078E+00  2.9445438E+01
 3.7124393E+00  2.9662451E+01
 3.7191710E+00  2.9620823E+01
 3.7259026E+00  2.9506378E+01
 3.7326341E+00  2.9244930E+01
 3.7393656E+00  2.9284279E+01
 3.7460971E+00  2.9230145E+01
 3.7528286E+00  2.9249565E+01
 3.7595601E+00  2.9359116E+01
 3.7662916E+00  2.9261452E+01
 3.7730231E+00  2.9294008E+01
 3.7797546E+00  2.9018286E+01
 3.7864861E+00  2.8741371E+01
 3.7932179E+00  2.8942596E+01
 3.7999494E+00  2.8925976E+01
 3.8066809E+00  2.8921051E+01
 3.8134124E+00  2.8983471E+01
 3.8201439E+00  2.8891855E+01
 3.8268754E+00  2.8489517E+01
 3.8336070E+00  2.8373518E+01
 3.8403385E+00  2.8470886E+01
 3.8470700E+00  2.8426302E+01
 3.8538015E+00  2.8427650E+01
 3.8605330E+00  2.8186941E+01
 3.8672645E+00  2.8142706E+01
 3.8739963E+00  2.8148584E+01
 3.8807278E+00  2.7928455E+01
 3.8874593E+00  2.8037325E+01
 3.8941908E+00  2.8089613E+01
 3.9009223E+00  2.8158554E+01
 3.9076538E+00  2.7975891E+01
 3.9143853E+00  2.7782583E+01
 3.9211168E+00  2.7780884E+01
 3.9278483E+00  2.7678690E+01
 3.9345798E+00  2.7646891E+01
 3.9413114E+00  2.7744497E+01
 3.9480431E+00  2.7615261E+01
 3.9547746E+00  2.7667585E+01
 3.9615061E+00  2.7443024E+01
 3.9682376E+00  2.7495663E+01
 3.9749691E+00  2.7536554E+01
 3.9817007E+00  2.7346235E+01
 3.9884322E+00  2.7258902E+01
 3.9951637E+00  2.7036087E+01
 4.0018954E+00  2.7060770E+01
 4.0086269E+00  2.6984898E+01
 4.0153584E+00  2.6943844E+01
 4.0220900E+00  2.6958565E+01
 4.0288215E+00  2.6864719E+01
 4.0355530E+00  2.6662533E+01
 4.0422845E+00  2.6663536E+01
 4.0490160E+00  2.6747059E+01
 4.0557475E+00  2.6815350E+01
 4.0624790E+00  2.6753544E+01
 4.0692105E+00  2.6972025E+01
 4.0759420E+00  2.6782539E+01
 4.0826735E+00  2.6506374E+01
 4.0894051E+00  2.6459923E+01
 4.0961366E+00  2.6375212E+01
 4.1028681E+00  2.6468889E+01
 4.1095996E+00  2.6291756E+01
 4.1163311E+00  2.6340361E+01
 4.1230626E+00  2.6245508E+01
 4.1297941E+00  2.6162922E+01
 4.1365261E+00  2.6296114E+01
 4.1432576E+00  2.6240194E+01
 4.1499891E+00  2.5921289E+01
 4.1567206E+00  2.5783398E+01
 4.1634521E+00  2.5947889E+01
 4.1701837E+00  2.6015097E+01
 4.1769152E+00  2.5966215E+01
 4.1836467E+00  2.5823381E+01
 4.1903782E+00  2.5617880E+01
 4.1971097E+00  2.5708652E+01
 4.2038412E+00  2.5571795E+01
 4.2105727E+00  2.5923973E+01
 4.2173042E+00  2.5603918E+01
 4.2240357E+00  2.5467793E+01
 4.2307673E+00  2.5594711E+01
 4.2374988E+00  2.5472359E+01
 4.2442303E+00  2.5561882E+01
 4.2509618E+00  2.5415846E+01
 4.2576933E+00  2.5558945E+01
 4.2644248E+00  2.5455206E+01
 4.2711563E+00  2.5105412E+01
 4.2778878E+00  2.5227694E+01
 4.2846193E+00  2.5208139E+01
 4.2913513E+00  2.5372627E+01
 4.2980828E+00  2.5466282E+01
 4.3048143E+00  2.5562250E+01
 4.3115458E+00  2.5205843E+01
 4.3182774E+00  2.5157759E+01
 4.3250089E+00  2.5241518E+01
 4.3317404E+00  2.5364031E+01
 4.3384719E+00  2.5350163E+01
 4.3452034E+00  2.5086040E+01
 4.3519349E+00  2.4874708E+01
 4.3586664E+00  2.5041838E+01
 4.3653979E+00  2.5021799E+01
 4.3721294E+00  2.4949049E+01
 4.3788610E+00  2.5100637E+01
 4.3855925E+00  2.5134733E+01
 4.3923240E+00  2.5052336E+01
 4.3990555E+00  2.4935686E+01
 4.4057870E+00  2.4869249E+01
 4.4125185E+00  2.4867144E+01
 4.4192500E+00  2.4750135E+01
 4.4259815E+00  2.4744032E+01
 4.4327130E+00  2.4688242E+01
 4.4394445E+00  2.4636339E+01
 4.4461765E+00  2.4669233E+01
 4.4529080E+00  2.4540545E+01
 4.4596395E+00  2.4517591E+01
 4.4663711E+00  2.4763161E+01
 4.4731026E+00  2.4590071E+01
 4.4798341E+00  2.4594027E+01
 4.4865656E+00  2.4588032E+01
 4.4932971E+00  2.4664053E+01
 4.5000286E+00  2.4634562E+01
 4.5067601E+00  2.4618008E+01
 4.5134916E+00  2.4333941E+01
 4.5202231E+00  2.4287296E+01
 4.5269547E+00  2.4487898E+01
 4.5336862E+00  2.4395683E+01
 4.5404177E+00  2.4337543E+01
 4.5471492E+00  2.4288847E+01
 4.5538807E+00  2.4302246E+01
 4.5606122E+00  2.4215128E+01
 4.5673437E+00  2.4244341E+01
 4.5740752E+00  2.4136520E+01
 4.5808067E+00  2.4365786E+01
 4.5875382E+00  2.4285074E+01
 4.5942698E+00  2.4243946E+01
 4.6010017E+00  2.4055269E+01
 4.6077332E+00  2.4140528E+01
 4.6144648E+00  2.4194532E+01
 4.6211963E+00  2.4087423E+01
 4.6279278E+00  2.3923521E+01
 4.6346593E+00  2.3976923E+01
 4.6413908E+00  2.4155085E+01
 4.6481223E+00  2.3983656E+01
 4.6548538E+00  2.3787380E+01
 4.6615853E+00  2.3907093E+01
 4.6683168E+00  2.3815029E+01
 4.6750484E+00  2.4028254E+01
 4.6817799E+00  2.3713171E+01
 4.6885114E+00  2.3928499E+01
 4.6952429E+00  2.3760349E+01
 4.7019744E+00  2.3560867E+01
 4.7087059E+00  2.3769794E+01
 4.7154374E+00  2.3808628E+01
 4.7221689E+00  2.3776937E+01
 4.7289004E+00  2.3889566E+01
 4.7356319E+00  2.3850048E+01
 4.7423635E+00  2.3631771E+01
 4.7490954E+00  2.3579638E+01
 4.7558270E+00  2.3506714E+01
 4.7625585E+00  2.3585598E+01
 4.7692900E+00  2.3409094E+01
 4.7760215E+00  2.3484392E+01
 4.7827530E+00  2.3670021E+01
 4.7894845E+00  2.3563412E+01
 4.7962160E+00  2.3437775E+01
 4.8029475E+00  2.3296600E+01
 4.8096790E+00  2.3295565E+01
 4.8164105E+00  2.3296640E+01
 4.8231421E+00  2.3487291E+01
 4.8298736E+00  2.3495899E+01
 4.8366051E+00  2.3322317E+01
 4.8433366E+00  2.3132313E+01
 4.8500681E+00  2.3270220E+01
 4.8567996E+00  2.3392551E+01
 4.8635311E+00  2.3232832E+01
 4.8702626E+00  2.3285757E+01
 4.8769941E+00  2.3012970E+01
 4.8837256E+00  2.2925779E+01
 4.8904572E+00  2.3243881E+01
 4.8971887E+00  2.2884098E+01
 4.9039207E+00  2.3124363E+01
 4.9106522E+00  2.3012329E+01
 4.9173837E+00  2.2934650E+01
 4.9241152E+00  2.2901037E+01
 4.9308467E+00  2.2861435E+01
 4.9375782E+00  2.2888407E+01
 4.9443097E+00  2.2984266E+01
 4.9510412E+00  2.2970583E+01
 4.9577727E+00  2.2786930E+01
 4.9645042E+00  2.2625065E+01
 4.9712358E+00  2.2788351E+01
 4.9779673E+00  2.2802567E+01
 4.9846988E+00  2.3001133E+01
 4.9914303E+00  2.2653820E+01
 4.9981618E+00  2.2582605E+01
 5.0048933E+00  2.2754898E+01
 5.0116248E+00  2.2636753E+01
 5.0183563E+00  2.2886560E+01
 5.0250878E+00  2.2749201E+01
 5.0318193E+00  2.2734673E+01
 5.0385509E+00  2.2474569E+01
 5.0452824E+00  2.2397085E+01
 5.0520139E+00  2.2484098E+01
 5.0587459E+00  2.2425240E+01
 5.0654774E+00  2.2341875E+01
 5.0722089E+00  2.2506235E+01
 5.0789404E+00  2.2517742E+01
 5.0856719E+00  2.2502642E+01
 5.0924034E+00  2.2357662E+01
 5.0991349E+00  2.2099266E+01
 5.1058664E+00  2.2092138E+01
 5.1125979E+00  2.2432846E+01
 5.1193295E+00  2.2426643E+01
 5.1260610E+00  2.2210539E+01
 5.1327925E+00  2.2058302E+01
 5.1395240E+00  2.2112436E+01
 5.1462555E+00  2.2086143E+01
 5.1529870E+00  2.2279678E+01
 5.1597185E+00  2.2272303E+01
 5.1664500E+00  2.2118158E+01
 5.1731815E+00  2.1987030E+01
 5.1799130E+00  2.1952837E+01
 5.1866446E+00  2.2106646E+01
 5.1933761E+00  2.2040220E+01
 5.2001076E+00  2.1953285E+01
 5.2068391E+00  2.2064203E+01
 5.2135711E+00  2.1787468E+01
 5.2203026E+00  2.1987751E+01
 5.2270341E+00  2.1853214E+01
 5.2337656E+00  2.1899197E+01
 5.2404971E+00  2.2119591E+01
 5.2472286E+00  2.1744085E+01
 5.2539601E+00  2.1729076E+01
 5.2606916E+00  2.2017965E+01
 5.2674232E+00  2.1730003E+01
 5.2741547E+00  2.1753164E+01
 5.2808862E+00  2.1808140E+01
 5.2876177E+00  2.1834917E+01
 5.2943492E+00  2.1618641E+01
 5.3010807E+00  2.1667604E+01
 5.3078122E+00  2.1650839E+01
 5.3145437E+00  2.1733709E+01
 5.3212752E+00  2.1541397E+01
 5.3280067E+00  2.1588274E+01
 5.3347383E+00  2.1366892E+01
 5.3414698E+00  2.1399721E+01
 5.3482013E+00  2.1625050E+01
 5.3549328E+00  2.1749430E+01
 5.3616648E+00  2.1566481E+01
 5.3683963E+00  2.1433014E+01
 5.3751278E+00  2.1548019E+01
 5.3818593E+00  2.1511633E+01
 5.3885908E+00  2.1459658E+01
 5.3953223E+00  2.1447083E+01
 5.4020538E+00  2.1517708E+01
 5.4087853E+00  2.1311180E+01
 5.4155169E+00  2.1363800E+01
 5.4222484E+00  2.1355694E+01
 5.4289799E+00  2.1219095E+01
 5.4357114E+00  2.1203451E+01
 5.4424429E+00  2.1274748E+01
 5.4491744E+00  2.1409063E+01
 5.4559059E+00  2.1312990E+01
 5.4626374E+00  2.1385145E+01
 5.4693689E+00  2.1169022E+01
 5.4761004E+00  2.0949083E+01
 5.4828320E+00  2.1105036E+01
 5.4895635E+00  2.1111818E+01
 5.4962950E+00  2.1272226E+01
 5.5030265E+00  2.1050072E+01
 5.5097580E+00  2.1042009E+01
 5.5164900E+00  2.0913704E+01
 5.5232215E+00  2.0738108E+01
 5.5299530E+00  2.0848776E+01
 5.5366845E+00  2.0822144E+01
 5.5434160E+00  2.0758745E+01
 5.5501475E+00  2.0952534E+01
 5.5568790E+00  2.1111786E+01
 5.5636106E+00  2.0941811E+01
 5.5703421E+00  2.0786903E+01
 5.5770736E+00  2.0816135E+01
 5.5838051E+00  2.0865549E+01
 5.5905366E+00  2.0807590E+01
 5.5972681E+00  2.0739868E+01
 5.6039996E+00  2.0583044E+01
 5.6107311E+00  2.0645018E+01
 5.6174626E+00  2.0656719E+01
 5.6241941E+00  2.0423714E+01
 5.6309257E+00  2.0593775E+01
 5.6376572E+00  2.0475941E+01
 5.6443887E+00  2.0473856E+01
 5.6511202E+00  2.0145695E+01
 5.6578517E+00  2.0191727E+01
 5.6645832E+00  2.0118696E+01
 5.6713152E+00  2.0306028E+01
 5.6780467E+00  2.0306580E+01
 5.6847782E+00  2.0544806E+01
 5.6915097E+00  2.0199179E+01
 5.6982412E+00  1.9948391E+01
 5.7049727E+00  2.0113876E+01
 5.7117043E+00  2.0114157E+01
 5.7184358E+00  1.9887955E+01
 5.7251673E+00  1.9540638E+01
 5.7318988E+00  1.9394495E+01
 5.7386303E+00  1.9501272E+01
 5.7453618E+00  1.9576021E+01
 5.7520933E+00  1.9356213E+01
 5.7588248E+00  1.9466051E+01
 5.7655563E+00  1.9482925E+01
 5.7722878E+00  1.9150999E+01
 5.7790194E+00  1.9410204E+01
 5.7857509E+00  1.9238922E+01
 5.7924824E+00  1.9073212E+01
 5.7992139E+00  1.9049438E+01
 5.8059454E+00  1.9094410E+01
 5.8126769E+00  1.9017145E+01
 5.8194084E+00  1.8886311E+01
 5.8261404E+00  1.9023596E+01
 5.8328719E+00  1.8729837E+01
 5.8396034E+00  1.8808413E+01
 5.8463349E+00  1.8699158E+01
 5.8530664E+00  1.8479973E+01
 5.8597980E+00  1.8500414E+01
 5.8665295E+00  1.8724545E+01
 5.8732610E+00  1.8223864E+01
 5.8799925E+00  1.8241528E+01
 5.8867240E+00  1.8187120E+01
 5.8934555E+00  1.8220476E+01
 5.9001870E+00  1.8309320E+01
 5.9069185E+00  1.8130964E+01
 5.9136500E+00  1.7982235E+01
 5.9203815E+00  1.8193832E+01
 5.9271131E+00  1.7846518E+01
 5.9338446E+00  1.7831558E+01
 5.9405761E+00  1.7241575E+01
 5.9473076E+00  1.7498337E+01
 5.9540391E+00  1.7703295E+01
 5.9607706E+00  1.7430244E+01
 5.9675021E+00  1.7505671E+01
 5.9742341E+00  1.7114553E+01
 5.9809656E+00  1.7153309E+01
 5.9876971E+00  1.6737488E+01
 5.9944286E+00  1.6492683E+01
 6.0011601E+00  1.6453735E+01
 6.0078917E+00  1.6791777E+01
 6.0146232E+00  1.6616796E+01
 6.0213547E+00  1.6273195E+01
 6.0280862E+00  1.6351875E+01
 6.0348177E+00  1.6520132E+01
 6.0415492E+00  1.6193270E+01
 6.0482807E+00  1.5864130E+01
 6.0550122E+00  1.6091805E+01
 6.0617437E+00  1.5917607E+01
 6.0684752E+00  1.5856294E+01
 6.0752068E+00  1.5513302E+01
 6.0819383E+00  1.6000898E+01
 6.0886698E+00  1.6129799E+01
 6.0954013E+00  1.5727589E+01
 6.1021328E+00  1.5430661E+01
 6.1088643E+00  1.5273816E+01
 6.1155958E+00  1.5323356E+01
 6.1223273E+00  1.5489847E+01
 6.1290593E+00  1.5319070E+01
 6.1357908E+00  1.5069258E+01
 6.1425223E+00  1.5065446E+01
 6.1492538E+00  1.4673640E+01
 6.1559854E+00  1.4853571E+01
 6.1627169E+00  1.5247718E+01
 6.1694484E+00  1.5149016E+01
 6.1761799E+00  1.4995041E+01
 6.1829114E+00  1.4648026E+01
 6.1896429E+00  1.4754876E+01
 6.1963744E+00  1.4607697E+01
 6.2031059E+00  1.4217107E+01
 6.2098374E+00  1.4165693E+01
 6.2165689E+00  1.4285409E+01
 6.2233005E+00  1.4061604E+01
 6.2300320E+00  1.4092638E+01
 6.2367635E+00  1.3777687E+01
 6.2434950E+00  1.3963712E+01
 6.2502265E+00  1.3961205E+01
 6.2569580E+00  1.3877260E+01
 6.2636895E+00  1.3999187E+01
 6.2704210E+00  1.3648058E+01
 6.2771525E+00  1.3235517E+01
 6.2838845E+00  1.3493560E+01
 6.2906160E+00  1.3515364E+01
 6.2973475E+00  1.3438292E+01
 6.3040791E+00  1.3423638E+01
 6.3108106E+00  1.2965232E+01
 6.3175421E+00  1.3425541E+01
 6.3242736E+00  1.2826646E+01
 6.3310051E+00  1.2995111E+01
 6.3377366E+00  1.2540134E+01
 6.3444681E+00  1.2775981E+01
 6.3511996E+00  1.2878205E+01
 6.3579311E+00  1.3223395E+01
 6.3646626E+00  1.2454367E+01
 6.3713942E+00  1.2496972E+01
 6.3781257E+00  1.2781255E+01
 6.3848572E+00  1.2794535E+01
 6.3915887E+00  1.2302737E+01
 6.3983202E+00  1.2632907E+01
 6.4050517E+00  1.2815527E+01
 6.4117832E+00  1.2242310E+01
 6.4185147E+00  1.2089430E+01
 6.4252462E+00  1.2542412E+01
 6.4319777E+00  1.2448355E+01
 6.4387097E+00  1.2628410E+01
 6.4454412E+00  1.3076468E+01
 6.4521728E+00  1.2472486E+01
 6.4589043E+00  1.2417997E+01
 6.4656358E+00  1.3183968E+01
 6.4723673E+00  1.3282651E+01
 6.4790988E+00  1.4350721E+01
 6.4858303E+00  0.0000000E+00
 6.4925618E+00  0.0000000E+00
 6.4992933E+00  0.0000000E+00
 6.5060248E+00  0.0000000E+00
 6.5127563E+00  0.0000000E+00
 6.5194879E+00  0.0000000E+00
 6.5262194E+00  0.0000000E+00
 6.5329509E+00  0.0000000E+00
 6.5396824E+00  0.0000000E+00
 6.5464139E+00  0.0000000E+00
 6.5531454E+00  0.0000000E+00
 6.5598769E+00  0.0000000E+00
 6.5666084E+00  0.0000000E+00
 6.5733399E+00  0.0000000E+00
 6.5800714E+00  0.0000000E+00
 6.5868034E+00  0.0000000E+00
 6.5935349E+00  0.0000000E+00
 6.6002665E+00  0.0000000E+00
 6.6069980E+00  0.0000000E+00
 6.6137295E+00  0.0000000E+00
 6.6204610E+00  0.0000000E+00
 6.6271925E+00  0.0000000E+00
 6.6339240E+00  0.0000000E+00
 6.6406555E+00  0.0000000E+00
 6.6473870E+00  0.0000000E+00
 6.6541185E+00  0.0000000E+00
 6.6608500E+00  0.0000000E+00
 6.6675816E+00  0.0000000E+00
 6.6743131E+00  0.0000000E+00
 6.6810446E+00  0.0000000E+00
 6.6877761E+00  0.0000000E+00
 6.6945076E+00  0.0000000E+00
 6.7012391E+00  0.0000000E+00
 6.7079706E+00  0.0000000E+00
 6.7147021E+00  0.0000000E+00
 6.7214336E+00  0.0000000E+00
 6.7281651E+00  0.0000000E+00
 6.7348967E+00  0.0000000E+00
 6.7416286E+00  0.0000000E+00
