part_00000.tif: Q-Space Scan
Q (Inverse Nanometres)

       1002
 3.3657656E-03  0.0000000E+00
 1.0097297E-02  0.0000000E+00
 1.6828828E-02  0.0000000E+00
 2.3560358E-02  0.0000000E+00
 3.0291891E-02  0.0000000E+00
 3.7023421E-02  0.0000000E+00
 4.3754954E-02  0.0000000E+00
 5.0486483E-02  0.0000000E+00
 5.7218015E-02  0.0000000E+00
 6.3949548E-02  0.0000000E+00
 7.0681080E-02  0.0000000E+00
 7.7412605E-02  0.0000000E+00
 8.4144138E-02  0.0000000E+00
 9.0875670E-02  1.0761208E+06
 9.7607203E-02  1.0775570E+06
 1.0433874E-01  1.0723130E+06
 1.1107026E-01  9.5609288E+05
 1.1780179E-01  7.4338794E+05
 1.2453333E-01  5.7845475E+05
 1.3126485E-01  4.5782319E+05
 1.3799639E-01  3.6635888E+05
 1.4472792E-01  2.9752497E+05
 1.5145946E-01  2.4770475E+05
 1.5819098E-01  2.0707333E+05
 1.6492251E-01  1.7479519E+05
 1.7165405E-01  1.4745516E+05
 1.7838557E-01  1.2562793E+05
 1.8511711E-01  1.0721607E+05
 1.9184864E-01  9.1945148E+04
 1.9858016E-01  7.9527164E+04
 2.0531170E-01  6.8856984E+04
 2.1204323E-01  5.9942246E+04
 2.1877477E-01  5.2421508E+04
 2.2550629E-01  4.6067633E+04
 2.3223783E-01  4.0740145E+04
 2.3896936E-01  3.6072602E+04
 2.4570088E-01  3.2173809E+04
 2.5243241E-01  2.8684314E+04
 2.5916395E-01  2.5681059E+04
 2.6589549E-01  2.3113205E+04
 2.7262700E-01  2.0825762E+04
 2.7935854E-01  1.8816541E+04
 2.8609008E-01  1.7055947E+04
 2.9282162E-01  1.5478227E+04
 2.9955313E-01  1.4101702E+04
 3.0628467E-01  1.2865549E+04
 3.1301621E-01  1.1772742E+04
 3.1974772E-01  1.0797943E+04
 3.2647926E-01  9.9020518E+03
 3.3321080E-01  9.1034287E+03
 3.3994234E-01  8.3781553E+03
 3.4667385E-01  7.7423564E+03
 3.5340539E-01  7.1683560E+03
 3.6013693E-01  6.6265210E+03
 3.6686844E-01  6.1506553E+03
 3.7359998E-01  5.7136680E+03
 3.8033152E-01  5.3094287E+03
 3.8706303E-01  4.9499497E+03
 3.9379457E-01  4.6180210E+03
 4.0052611E-01  4.3096616E+03
 4.0725765E-01  4.0285400E+03
 4.1398916E-01  3.7750564E+03
 4.2072070E-01  3.5387249E+03
 4.2745224E-01  3.3208313E+03
 4.3418375E-01  3.1250298E+03
 4.4091529E-01  2.9385420E+03
 4.4764683E-01  2.7719507E+03
 4.5437834E-01  2.6141206E+03
 4.6110988E-01  2.4615308E+03
 4.6784142E-01  2.3327139E+03
 4.7457296E-01  2.2081035E+03
 4.8130447E-01  2.0870852E+03
 4.8803601E-01  1.9808333E+03
 4.9476755E-01  1.8771870E+03
 5.0149906E-01  1.7784150E+03
 5.0823063E-01  1.6875884E+03
 5.1496214E-01  1.6073806E+03
 5.2169365E-01  1.5310000E+03
 5.2842522E-01  1.4553519E+03
 5.3515673E-01  1.3882496E+03
 5.4188824E-01  1.3188279E+03
 5.4861981E-01  1.2584994E+03
 5.5535132E-01  1.2061390E+03
 5.6208283E-01  1.1531451E+03
 5.6881440E-01  1.1027542E+03
 5.7554591E-01  1.0558744E+03
 5.8227742E-01  1.0091189E+03
 5.8900899E-01  9.6826880E+02
 5.9574050E-01  9.3096375E+02
 6.0247201E-01  8.8929993E+02
 6.0920358E-01  8.5192865E+02
 6.1593509E-01  8.2120831E+02
 6.2266666E-01  7.8947614E+02
 6.2939817E-01  7.6036383E+02
 6.3612968E-01  7.3272211E+02
 6.4286125E-01  7.0675568E+02
 6.4959276E-01  6.8023883E+02
 6.5632427E-01  6.5348157E+02
 6.6305584E-01  6.3099701E+02
 6.6978735E-01  6.0942407E+02
 6.7651886E-01  5.8859332E+02
 6.8325043E-01  5.6981854E+02
 6.8998194E-01  5.5154877E+02
 6.9671345E-01  5.3176660E+02
 7.0344502E-01  5.1485632E+02
 7.1017653E-01  4.9784262E+02
 7.1690804E-01  4.8344785E+02
 7.2363961E-01  4.6817859E+02
 7.3037112E-01  4.5354266E+02
 7.3710263E-01  4.4110104E+02
 7.4383420E-01  4.2664502E+02
 7.5056571E-01  4.1569339E+02
 7.5729728E-01  4.0174655E+02
 7.6402879E-01  3.9158438E+02
 7.7076030E-01  3.7942239E+02
 7.7749187E-01  3.6896075E+02
 7.8422338E-01  3.5808682E+02
 7.9095489E-01  3.4879736E+02
 7.9768646E-01  3.3912222E+02
 8.0441797E-01  3.3039206E+02
 8.1114948E-01  3.2222305E+02
 8.1788105E-01  3.1264380E+02
 8.2461256E-01  3.0585056E+02
 8.3134407E-01  2.9976413E+02
 8.3807564E-01  2.9155606E+02
 8.4480715E-01  2.8555768E+02
 8.5153866E-01  2.7782727E+02
 8.5827023E-01  2.7087332E+02
 8.6500174E-01  2.6494156E+02
 8.7173331E-01  2.5814633E+02
 8.7846482E-01  2.5342905E+02
 8.8519633E-01  2.4688780E+02
 8.9192790E-01  2.4184567E+02
 8.9865941E-01  2.3665964E+02
 9.0539092E-01  2.3234026E+02
 9.1212249E-01  2.2657608E+02
 9.1885400E-01  2.2232756E+02
 9.2558551E-01  2.1776131E+02
 9.3231708E-01  2.1313625E+02
 9.3904859E-01  2.0892383E+02
 9.4578010E-01  2.0543224E+02
 9.5251167E-01  2.0091077E+02
 9.5924318E-01  1.9664438E+02
 9.6597469E-01  1.9386502E+02
 9.7270626E-01  1.8979265E+02
 9.7943777E-01  1.8556522E+02
 9.8616934E-01  1.8284920E+02
 9.9290085E-01  1.7954897E+02
 9.9963236E-01  1.7545233E+02
 1.0063639E+00  1.7354208E+02
 1.0130954E+00  1.7028610E+02
 1.0198270E+00  1.6905847E+02
 1.0265585E+00  1.6627679E+02
 1.0332900E+00  1.6346104E+02
 1.0400215E+00  1.5999496E+02
 1.0467530E+00  1.5583551E+02
 1.0534847E+00  1.5435207E+02
 1.0602162E+00  1.5194901E+02
 1.0669477E+00  1.5030434E+02
 1.0736792E+00  1.4730353E+02
 1.0804107E+00  1.4513799E+02
 1.0871422E+00  1.4366029E+02
 1.0938739E+00  1.4165210E+02
 1.1006054E+00  1.3988771E+02
 1.1073369E+00  1.3692978E+02
 1.1140684E+00  1.3393893E+02
 1.1207999E+00  1.3342314E+02
 1.1275314E+00  1.3162199E+02
 1.1342630E+00  1.2965625E+02
 1.1409945E+00  1.2810333E+02
 1.1477261E+00  1.2635748E+02
 1.1544576E+00  1.2412478E+02
 1.1611891E+00  1.2267141E+02
 1.1679206E+00  1.2113167E+02
 1.1746522E+00  1.1947674E+02
 1.1813837E+00  1.1886810E+02
 1.1881152E+00  1.1836744E+02
 1.1948467E+00  1.1650283E+02
 1.2015783E+00  1.1519737E+02
 1.2083099E+00  1.1449576E+02
 1.2150414E+00  1.1301963E+02
 1.2217729E+00  1.1182715E+02
 1.2285044E+00  1.1078989E+02
 1.2352359E+00  1.1017902E+02
 1.2419674E+00  1.0925967E+02
 1.2486991E+00  1.0812953E+02
 1.2554306E+00  1.0690577E+02
 1.2621621E+00  1.0596841E+02
 1.2688936E+00  1.0459164E+02
 1.2756251E+00  1.0485535E+02
 1.2823566E+00  1.0367751E+02
 1.2890882E+00  1.0194750E+02
 1.2958198E+00  1.0021994E+02
 1.3025513E+00  9.9070709E+01
 1.3092828E+00  9.7589233E+01
 1.3160143E+00  9.6768456E+01
 1.3227459E+00  9.5621429E+01
 1.3294774E+00  9.4427460E+01
 1.3362089E+00  9.3632019E+01
 1.3429404E+00  9.3138268E+01
 1.3496720E+00  9.2008598E+01
 1.3564035E+00  9.1274628E+01
 1.3631351E+00  9.0396294E+01
 1.3698666E+00  8.9073936E+01
 1.3765981E+00  8.8138329E+01
 1.3833296E+00  8.7596176E+01
 1.3900611E+00  8.6785599E+01
 1.3967927E+00  8.6285065E+01
 1.4035243E+00  8.5405975E+01
 1.4102558E+00  8.4284210E+01
 1.4169873E+00  8.3910118E+01
 1.4237188E+00  8.3281326E+01
 1.4304503E+00  8.1983429E+01
 1.4371819E+00  8.1805992E+01
 1.4439135E+00  8.1346313E+01
 1.4506450E+00  8.0101196E+01
 1.4573765E+00  7.9482613E+01
 1.4641080E+00  7.9215813E+01
 1.4708395E+00  7.8621887E+01
 1.4775711E+00  7.8623116E+01
 1.4843026E+00  7.7560646E+01
 1.4910342E+00  7.7208717E+01
 1.4977657E+00  7.6836174E+01
 1.5044972E+00  7.6353317E+01
 1.5112287E+00  7.5243843E+01
 1.5179603E+00  7.4669327E+01
 1.5246918E+00  7.4161240E+01
 1.5314233E+00  7.4230698E+01
 1.5381548E+00  7.3621841E+01
 1.5448864E+00  7.3045830E+01
 1.5516180E+00  7.2353165E+01
 1.5583495E+00  7.2618858E+01
 1.5650810E+00  7.1719582E+01
 1.5718125E+00  7.1421593E+01
 1.5785440E+00  7.1365524E+01
 1.5852755E+00  7.0829124E+01
 1.5920072E+00  6.9747986E+01
 1.5987387E+00  6.9324234E+01
 1.6054702E+00  6.9285278E+01
 1.6122017E+00  6.8891991E+01
 1.6189332E+00  6.8582924E+01
 1.6256647E+00  6.7849426E+01
 1.6323963E+00  6.7501534E+01
 1.6391279E+00  6.6404877E+01
 1.6458594E+00  6.6537170E+01
 1.6525909E+00  6.6470291E+01
 1.6593224E+00  6.6024841E+01
 1.6660540E+00  6.5867378E+01
 1.6727855E+00  6.5415253E+01
 1.6795170E+00  6.5111168E+01
 1.6862485E+00  6.4817245E+01
 1.6929801E+00  6.4232567E+01
 1.6997116E+00  6.3955727E+01
 1.7064432E+00  6.3990940E+01
 1.7131747E+00  6.3712734E+01
 1.7199062E+00  6.3179234E+01
 1.7266377E+00  6.2588497E+01
 1.7333692E+00  6.2139614E+01
 1.7401007E+00  6.2387024E+01
 1.7468324E+00  6.1752918E+01
 1.7535639E+00  6.1345566E+01
 1.7602954E+00  6.1414131E+01
 1.7670269E+00  6.1255604E+01
 1.7737584E+00  6.0569450E+01
 1.7804899E+00  6.0354179E+01
 1.7872216E+00  6.0325241E+01
 1.7939531E+00  5.9798824E+01
 1.8006846E+00  5.9677322E+01
 1.8074161E+00  5.9385311E+01
 1.8141476E+00  5.8984695E+01
 1.8208792E+00  5.9246548E+01
 1.8276107E+00  5.8515938E+01
 1.8343422E+00  5.8163368E+01
 1.8410738E+00  5.7923031E+01
 1.8478053E+00  5.8170292E+01
 1.8545368E+00  5.7841938E+01
 1.8612684E+00  5.7614925E+01
 1.8679999E+00  5.7107246E+01
 1.8747314E+00  5.7085480E+01
 1.8814629E+00  5.7051922E+01
 1.8881944E+00  5.6701389E+01
 1.8949260E+00  5.6272991E+01
 1.9016576E+00  5.5578075E+01
 1.9083891E+00  5.5990982E+01
 1.9151206E+00  5.5863743E+01
 1.9218521E+00  5.5650307E+01
 1.9285836E+00  5.5556728E+01
 1.9353153E+00  5.5122444E+01
 1.9420468E+00  5.4852909E+01
 1.9487783E+00  5.4542732E+01
 1.9555098E+00  5.4349045E+01
 1.9622413E+00  5.4563118E+01
 1.9689728E+00  5.4519943E+01
 1.9757044E+00  5.4231392E+01
 1.9824359E+00  5.3447029E+01
 1.9891675E+00  5.3411575E+01
 1.9958990E+00  5.3525139E+01
 2.0026305E+00  5.3266975E+01
 2.0093620E+00  5.3033936E+01
 2.0160935E+00  5.2834419E+01
 2.0228250E+00  5.2843555E+01
 2.0295565E+00  5.2483456E+01
 2.0362883E+00  5.2687778E+01
 2.0430198E+00  5.2603817E+01
 2.0497513E+00  5.2264767E+01
 2.0564828E+00  5.2035236E+01
 2.0632143E+00  5.1911217E+01
 2.0699458E+00  5.2400925E+01
 2.0766773E+00  5.1670139E+01
 2.0834088E+00  5.1415936E+01
 2.0901403E+00  5.1220154E+01
 2.0968719E+00  5.1302013E+01
 2.1036034E+00  5.1273651E+01
 2.1103351E+00  5.0912289E+01
 2.1170666E+00  5.0313160E+01
 2.1237981E+00  5.0471397E+01
 2.1305296E+00  5.0060783E+01
 2.1372612E+00  5.0079708E+01
 2.1439927E+00  4.9998898E+01
 2.1507242E+00  4.9708023E+01
 2.1574557E+00  4.9678646E+01
 2.1641872E+00  5.0018826E+01
 2.1709187E+00  4.9615398E+01
 2.1776502E+00  4.9674519E+01
 2.1843820E+00  4.9414814E+01
 2.1911135E+00  4.9448586E+01
 2.1978450E+00  4.8877346E+01
 2.2045765E+00  4.9311440E+01
 2.2113080E+00  4.9485210E+01
 2.2180395E+00  4.9191074E+01
 2.2247710E+00  4.8587555E+01
 2.2315025E+00  4.8491627E+01
 2.2382340E+00  4.8370697E+01
 2.2449656E+00  4.8114597E+01
 2.2516971E+00  4.8300663E+01
 2.2584286E+00  4.8123123E+01
 2.2651603E+00  4.7789150E+01
 2.2718918E+00  4.7764870E+01
 2.2786233E+00  4.7627644E+01
 2.2853549E+00  4.7480972E+01
 2.2920864E+00  4.7607334E+01
 2.2988179E+00  4.7296795E+01
 2.3055494E+00  4.7268486E+01
 2.3122809E+00  4.7387341E+01
 2.3190124E+00  4.7133961E+01
 2.3257439E+00  4.6971756E+01
 2.3324754E+00  4.7131020E+01
 2.3392072E+00  4.6971794E+01
 2.3459387E+00  4.6681263E+01
 2.3526702E+00  4.6314945E+01
 2.3594017E+00  4.6539860E+01
 2.3661332E+00  4.6402710E+01
 2.3728647E+00  4.6011116E+01
 2.3795962E+00  4.5977894E+01
 2.3863277E+00  4.6051243E+01
 2.3930593E+00  4.5921505E+01
 2.3997908E+00  4.5872280E+01
 2.4065223E+00  4.5847885E+01
 2.4132540E+00  4.5666882E+01
 2.4199855E+00  4.5538937E+01
 2.4267170E+00  4.5695969E+01
 2.4334486E+00  4.5327808E+01
 2.4401801E+00  4.5147842E+01
 2.4469116E+00  4.5012745E+01
 2.4536431E+00  4.4994953E+01
 2.4603746E+00  4.4865707E+01
 2.4671061E+00  4.4479034E+01
 2.4738376E+00  4.4537144E+01
 2.4805691E+00  4.4426548E+01
 2.4873006E+00  4.4503780E+01
 2.4940324E+00  4.4278214E+01
 2.5007639E+00  4.4610847E+01
 2.5074954E+00  4.4201698E+01
 2.5142269E+00  4.3981522E+01
 2.5209584E+00  4.4117859E+01
 2.5276899E+00  4.3808903E+01
 2.5344214E+00  4.3750664E+01
 2.5411530E+00  4.3556351E+01
 2.5478845E+00  4.3547249E+01
 2.5546160E+00  4.3630249E+01
 2.5613475E+00  4.3655476E+01
 2.5680792E+00  4.3472931E+01
 2.5748107E+00  4.3067810E+01
 2.5815423E+00  4.3087963E+01
 2.5882738E+00  4.2980354E+01
 2.5950053E+00  4.2661507E+01
 2.6017368E+00  4.2796474E+01
 2.6084683E+00  4.2789997E+01
 2.6151998E+00  4.3054390E+01
 2.6219313E+00  4.3301147E+01
 2.6286628E+00  4.3088249E+01
 2.6353943E+00  4.3095451E+01
 2.6421258E+00  4.3011185E+01
 2.6488576E+00  4.3006134E+01
 2.6555891E+00  4.3119350E+01
 2.6623206E+00  4.2816860E+01
 2.6690521E+00  4.2879871E+01
 2.6757836E+00  4.2608829E+01
 2.6825151E+00  4.2531403E+01
 2.6892467E+00  4.2719826E+01
 2.6959782E+00  4.2659973E+01
 2.7027097E+00  4.2691414E+01
 2.7094412E+00  4.2258717E+01
 2.7161727E+00  4.2006626E+01
 2.7229044E+00  4.2089455E+01
 2.7296360E+00  4.1866257E+01
 2.7363675E+00  4.1416000E+01
 2.7430990E+00  4.1249828E+01
 2.7498305E+00  4.1177460E+01
 2.7565620E+00  4.1000340E+01
 2.7632935E+00  4.0860115E+01
 2.7700250E+00  4.0786045E+01
 2.7767565E+00  4.0624222E+01
 2.7834880E+00  4.0678028E+01
 2.7902195E+00  4.0352783E+01
 2.7969513E+00  4.0441086E+01
 2.8036828E+00  4.0035797E+01
 2.8104143E+00  3.9741592E+01
 2.8171458E+00  3.9881187E+01
 2.8238773E+00  3.9571339E+01
 2.8306088E+00  3.9187172E+01
 2.8373404E+00  3.9246052E+01
 2.8440719E+00  3.9321896E+01
 2.8508034E+00  3.8974380E+01
 2.8575349E+00  3.9179466E+01
 2.8642664E+00  3.8827232E+01
 2.8709979E+00  3.8832191E+01
 2.8777297E+00  3.8869049E+01
 2.8844612E+00  3.8720982E+01
 2.8911927E+00  3.8670914E+01
 2.8979242E+00  3.8562733E+01
 2.9046557E+00  3.8539108E+01
 2.9113872E+00  3.8271496E+01
 2.9181187E+00  3.8517090E+01
 2.9248502E+00  3.8303955E+01
 2.9315817E+00  3.7925682E+01
 2.9383132E+00  3.7798897E+01
 2.9450448E+00  3.7947632E+01
 2.9517765E+00  3.8062420E+01
 2.9585080E+00  3.7860630E+01
 2.9652395E+00  3.7882019E+01
 2.9719710E+00  3.7777454E+01
 2.9787025E+00  3.7398209E+01
 2.9854341E+00  3.7343658E+01
 2.9921656E+00  3.7465004E+01
 2.9988971E+00  3.7254906E+01
 3.0056286E+00  3.7250999E+01
 3.0123601E+00  3.7212440E+01
 3.0190916E+00  3.7003929E+01
 3.0258234E+00  3.6787579E+01
 3.0325549E+00  3.6855293E+01
 3.0392864E+00  3.6646599E+01
 3.0460179E+00  3.6556194E+01
 3.0527494E+00  3.6560310E+01
 3.0594809E+00  3.6435974E+01
 3.0662124E+00  3.6512249E+01
 3.0729439E+00  3.6181442E+01
 3.0796754E+00  3.6303661E+01
 3.0864069E+00  3.6133198E+01
 3.0931385E+00  3.6055813E+01
 3.0998700E+00  3.5900299E+01
 3.1066017E+00  3.5828663E+01
 3.1133332E+00  3.5878937E+01
 3.1200647E+00  3.5590775E+01
 3.1267962E+00  3.5691177E+01
 3.1335278E+00  3.5698990E+01
 3.1402593E+00  3.5601994E+01
 3.1469908E+00  3.5375607E+01
 3.1537223E+00  3.5085758E+01
 3.1604538E+00  3.4853184E+01
 3.1671853E+00  3.5022091E+01
 3.1739168E+00  3.5267532E+01
 3.1806486E+00  3.5123314E+01
 3.1873801E+00  3.5103966E+01
 3.1941116E+00  3.4822613E+01
 3.2008431E+00  3.4840084E+01
 3.2075746E+00  3.4709949E+01
 3.2143061E+00  3.4694374E+01
 3.2210376E+00  3.4687603E+01
 3.2277691E+00  3.4423969E+01
 3.2345006E+00  3.4511353E+01
 3.2412322E+00  3.4593273E+01
 3.2479637E+00  3.4468140E+01
 3.2546952E+00  3.4270912E+01
 3.2614269E+00  3.4169582E+01
 3.2681584E+00  3.3893337E+01
 3.2748899E+00  3.4099598E+01
 3.2816215E+00  3.4061081E+01
 3.2883530E+00  3.3575436E+01
 3.2950845E+00  3.3324379E+01
 3.3018160E+00  3.3529819E+01
 3.3085475E+00  3.3561714E+01
 3.3152790E+00  3.3407784E+01
 3.3220105E+00  3.3628250E+01
 3.3287420E+00  3.3616241E+01
 3.3354738E+00  3.3469685E+01
 3.3422053E+00  3.3232063E+01
 3.3489368E+00  3.3027920E+01
 3.3556683E+00  3.3184723E+01
 3.3623998E+00  3.2903400E+01
 3.3691313E+00  3.3089039E+01
 3.3758628E+00  3.3048035E+01
 3.3825943E+00  3.2811958E+01
 3.3893259E+00  3.2793575E+01
 3.3960574E+00  3.2654976E+01
 3.4027889E+00  3.2627831E+01
 3.4095206E+00  3.2510181E+01
 3.4162521E+00  3.2486004E+01
 3.4229836E+00  3.2450928E+01
 3.4297152E+00  3.2216949E+01
 3.4364467E+00  3.2161770E+01
 3.4431782E+00  3.2204769E+01
 3.4499097E+00  3.2251293E+01
 3.4566412E+00  3.1968393E+01
 3.4633727E+00  3.2124790E+01
 3.4701042E+00  3.2041840E+01
 3.4768357E+00  3.1797613E+01
 3.4835672E+00  3.1735193E+01
 3.4902990E+00  3.1693890E+01
 3.4970305E+00  3.1630203E+01
 3.5037620E+00  3.1479321E+01
 3.5104935E+00  3.1431194E+01
 3.5172250E+00  3.1463255E+01
 3.5239565E+00  3.1205772E+01
 3.5306880E+00  3.1328756E+01
 3.5374196E+00  3.1451809E+01
 3.5441511E+00  3.1338837E+01
 3.5508826E+00  3.1072756E+01
 3.5576141E+00  3.1086985E+01
 3.5643458E+00  3.0828833E+01
 3.5710773E+00  3.0869997E+01
 3.5778089E+00  3.0918276E+01
 3.5845404E+00  3.0937977E+01
 3.5912719E+00  3.0803570E+01
 3.5980034E+00  3.0616356E+01
 3.6047349E+00  3.0465061E+01
 3.6114664E+00  3.0458910E+01
 3.6181979E+00  3.0266596E+01
 3.6249294E+00  3.0011387E+01
 3.6316609E+00  3.0049175E+01
 3.6383927E+00  3.0134109E+01
 3.6451242E+00  3.0260262E+01
 3.6518557E+00  3.0214643E+01
 3.6585872E+00  3.0081957E+01
 3.6653187E+00  3.0024422E+01
 3.6720502E+00  2.9959860E+01
 3.6787817E+00  2.9688204E+01
 3.6855133E+00  2.9756100E+01
 3.6922448E+00  2.9471380E+01
 3.6989763E+00  2.9283487E+01
 3.7057078E+00  2.9425014E+01
 3.7124393E+00  2.9591288E+01
 3.7191710E+00  2.9580667E+01
 3.7259026E+00  2.9420929E+01
 3.7326341E+00  2.9389797E+01
 3.7393656E+00  2.9278753E+01
 3.7460971E+00  2.9251410E+01
 3.7528286E+00  2.9186684E+01
 3.7595601E+00  2.9188517E+01
 3.7662916E+00  2.9165531E+01
 3.7730231E+00  2.8895102E+01
 3.7797546E+00  2.8952202E+01
 3.7864861E+00  2.8939550E+01
 3.7932179E+00  2.8938902E+01
 3.7999494E+00  2.8899210E+01
 3.8066809E+00  2.8771931E+01
 3.8134124E+00  2.8677366E+01
 3.8201439E+00  2.8689312E+01
 3.8268754E+00  2.8793911E+01
 3.8336070E+00  2.8859707E+01
 3.8403385E+00  2.8530046E+01
 3.8470700E+00  2.8341026E+01
 3.8538015E+00  2.8309664E+01
 3.8605330E+00  2.8308182E+01
 3.8672645E+00  2.8445732E+01
 3.8739963E+00  2.8144016E+01
 3.8807278E+00  2.8035128E+01
 3.8874593E+00  2.8182831E+01
 3.8941908E+00  2.8139990E+01
 3.9009223E+00  2.7975765E+01
 3.9076538E+00  2.7818213E+01
 3.9143853E+00  2.7666149E+01
 3.9211168E+00  2.7611412E+01
 3.9278483E+00  2.7477024E+01
 3.9345798E+00  2.7539906E+01
 3.9413114E+00  2.7566109E+01
 3.9480431E+00  2.7416779E+01
 3.9547746E+00  2.7383251E+01
 3.9615061E+00  2.7522278E+01
 3.9682376E+00  2.7467161E+01
 3.9749691E+00  2.7419682E+01
 3.9817007E+00  2.7373119E+01
 3.9884322E+00  2.7229874E+01
 3.9951637E+00  2.7327078E+01
 4.0018954E+00  2.7216347E+01
 4.0086269E+00  2.7125496E+01
 4.0153584E+00  2.7129234E+01
 4.0220900E+00  2.6883406E+01
 4.0288215E+00  2.6924532E+01
 4.0355530E+00  2.6829578E+01
 4.0422845E+00  2.6937792E+01
 4.0490160E+00  2.6800253E+01
 4.0557475E+00  2.6754839E+01
 4.0624790E+00  2.6765200E+01
 4.0692105E+00  2.6686729E+01
 4.0759420E+00  2.6423460E+01
 4.0826735E+00  2.6507919E+01
 4.0894051E+00  2.6419537E+01
 4.0961366E+00  2.6334772E+01
 4.1028681E+00  2.6445784E+01
 4.1095996E+00  2.6362543E+01
 4.1163311E+00  2.6182755E+01
 4.1230626E+00  2.5971249E+01
 4.1297941E+00  2.6415556E+01
 4.1365261E+00  2.6524004E+01
 4.1432576E+00  2.6214706E+01
 4.1499891E+00  2.6326523E+01
 4.1567206E+00  2.5838655E+01
 4.1634521E+00  2.5746998E+01
 4.1701837E+00  2.5865294E+01
 4.1769152E+00  2.5915819E+01
 4.1836467E+00  2.5904259E+01
 4.1903782E+00  2.5812193E+01
 4.1971097E+00  2.5559206E+01
 4.2038412E+00  2.5516087E+01
 4.2105727E+00  2.5493881E+01
 4.2173042E+00  2.5655052E+01
 4.2240357E+00  2.5625818E+01
 4.2307673E+00  2.5684649E+01
 4.2374988E+00  2.5572247E+01
 4.2442303E+00  2.5610388E+01
 4.2509618E+00  2.5601933E+01
 4.2576933E+00  2.5369293E+01
 4.2644248E+00  2.5358749E+01
 4.2711563E+00  2.5302792E+01
 4.2778878E+00  2.5268986E+01
 4.2846193E+00  2.5374243E+01
 4.2913513E+00  2.5331472E+01
 4.2980828E+00  2.5156181E+01
 4.3048143E+00  2.5253468E+01
 4.3115458E+00  2.5342093E+01
 4.3182774E+00  2.5399939E+01
 4.3250089E+00  2.5154131E+01
 4.3317404E+00  2.5153891E+01
 4.3384719E+00  2.5226971E+01
 4.3452034E+00  2.5110308E+01
 4.3519349E+00  2.5258112E+01
 4.3586664E+00  2.5015873E+01
 4.3653979E+00  2.5096022E+01
 4.3721294E+00  2.5262903E+01
 4.3788610E+00  2.5066174E+01
 4.3855925E+00  2.4998039E+01
 4.3923240E+00  2.4952713E+01
 4.3990555E+00  2.4981480E+01
 4.4057870E+00  2.4887999E+01
 4.4125185E+00  2.4903702E+01
 4.4192500E+00  2.5007952E+01
 4.4259815E+00  2.4946749E+01
 4.4327130E+00  2.4598392E+01
 4.4394445E+00  2.4835930E+01
 4.4461765E+00  2.4645258E+01
 4.4529080E+00  2.4578382E+01
 4.4596395E+00  2.4498560E+01
 4.4663711E+00  2.4618443E+01
 4.4731026E+00  2.4840992E+01
 4.4798341E+00  2.4733038E+01
 4.4865656E+00  2.4491941E+01
 4.4932971E+00  2.4568581E+01
 4.5000286E+00  2.4609844E+01
 4.5067601E+00  2.4659960E+01
 4.5134916E+00  2.4428934E+01
 4.5202231E+00  2.4329710E+01
 4.5269547E+00  2.4319336E+01
 4.5336862E+00  2.4481434E+01
 4.5404177E+00  2.4485533E+01
 4.5471492E+00  2.4514963E+01
 4.5538807E+00  2.4362581E+01
 4.5606122E+00  2.4301279E+01
 4.5673437E+00  2.4357857E+01
 4.5740752E+00  2.4082457E+01
 4.5808067E+00  2.4294605E+01
 4.5875382E+00  2.4085514E+01
 4.5942698E+00  2.4129124E+01
 4.6010017E+00  2.4194208E+01
 4.6077332E+00  2.4267632E+01
 4.6144648E+00  2.4132048E+01
 4.6211963E+00  2.3964912E+01
 4.6279278E+00  2.4033897E+01
 4.6346593E+00  2.4006050E+01
 4.6413908E+00  2.4097498E+01
 4.6481223E+00  2.4070551E+01
 4.6548538E+00  2.4196983E+01
 4.6615853E+00  2.3866112E+01
 4.6683168E+00  2.4007191E+01
 4.6750484E+00  2.4059790E+01
 4.6817799E+00  2.4073801E+01
 4.6885114E+00  2.3924713E+01
 4.6952429E+00  2.3874907E+01
 4.7019744E+00  2.3708220E+01
 4.7087059E+00  2.3762205E+01
 4.7154374E+00  2.3783661E+01
 4.7221689E+00  2.3711838E+01
 4.7289004E+00  2.3435310E+01
 4.7356319E+00  2.3739271E+01
 4.7423635E+00  2.3741562E+01
 4.7490954E+00  2.3496637E+01
 4.7558270E+00  2.3239653E+01
 4.7625585E+00  2.3473846E+01
 4.7692900E+00  2.3619783E+01
 4.7760215E+00  2.3370958E+01
 4.7827530E+00  2.3512430E+01
 4.7894845E+00  2.3719887E+01
 4.7962160E+00  2.3519663E+01
 4.8029475E+00  2.3255249E+01
 4.8096790E+00  2.3173948E+01
 4.8164105E+00  2.3166451E+01
 4.8231421E+00  2.3408546E+01
 4.8298736E+00  2.3214035E+01
 4.8366051E+00  2.3198763E+01
 4.8433366E+00  2.3103447E+01
 4.8500681E+00  2.2952200E+01
 4.8567996E+00  2.3008514E+01
 4.8635311E+00  2.3169796E+01
 4.8702626E+00  2.3008432E+01
 4.8769941E+00  2.2926115E+01
 4.8837256E+00  2.3067600E+01
 4.8904572E+00  2.2882639E+01
 4.8971887E+00  2.2908382E+01
 4.9039207E+00  2.2788010E+01
 4.9106522E+00  2.2854404E+01
 4.9173837E+00  2.2773903E+01
 4.9241152E+00  2.2783770E+01
 4.9308467E+00  2.2873589E+01
 4.9375782E+00  2.2837334E+01
 4.9443097E+00  2.2957642E+01
 4.9510412E+00  2.2614397E+01
 4.9577727E+00  2.2766769E+01
 4.9645042E+00  2.2913206E+01
 4.9712358E+00  2.2833158E+01
 4.9779673E+00  2.2690516E+01
 4.9846988E+00  2.2859663E+01
 4.9914303E+00  2.2859955E+01
 4.9981618E+00  2.2691746E+01
 5.0048933E+00  2.2624323E+01
 5.0116248E+00  2.2469610E+01
 5.0183563E+00  2.2551441E+01
 5.0250878E+00  2.2759817E+01
 5.0318193E+00  2.2562384E+01
 5.0385509E+00  2.2693592E+01
 5.0452824E+00  2.2544247E+01
 5.0520139E+00  2.2483458E+01
 5.0587459E+00  2.2283270E+01
 5.0654774E+00  2.2480532E+01
 5.0722089E+00  2.2302727E+01
 5.0789404E+00  2.2473705E+01
 5.0856719E+00  2.2277771E+01
 5.0924034E+00  2.2131418E+01
 5.0991349E+00  2.2377504E+01
 5.1058664E+00  2.2242025E+01
 5.1125979E+00  2.2387835E+01
 5.1193295E+00  2.2368515E+01
 5.1260610E+00  2.2351004E+01
 5.1327925E+00  2.2335411E+01
 5.1395240E+00  2.2034193E+01
 5.1462555E+00  2.1973595E+01
 5.1529870E+00  2.2101643E+01
 5.1597185E+00  2.2203506E+01
 5.1664500E+00  2.2089586E+01
 5.1731815E+00  2.2118979E+01
 5.1799130E+00  2.2130404E+01
 5.1866446E+00  2.2111168E+01
 5.1933761E+00  2.1919775E+01
 5.2001076E+00  2.2186579E+01
 5.2068391E+00  2.2032917E+01
 5.2135711E+00  2.1957006E+01
 5.2203026E+00  2.1986677E+01
 5.2270341E+00  2.1905052E+01
 5.2337656E+00  2.1854193E+01
 5.2404971E+00  2.1862566E+01
 5.2472286E+00  2.1591753E+01
 5.2539601E+00  2.1783180E+01
 5.2606916E+00  2.1793392E+01
 5.2674232E+00  2.1642275E+01
 5.2741547E+00  2.1666901E+01
 5.2808862E+00  2.1711426E+01
 5.2876177E+00  2.1759638E+01
 5.2943492E+00  2.1866623E+01
 5.3010807E+00  2.1657589E+01
 5.3078122E+00  2.1496454E+01
 5.3145437E+00  2.1411293E+01
 5.3212752E+00  2.1562630E+01
 5.3280067E+00  2.1743059E+01
 5.3347383E+00  2.1532623E+01
 5.3414698E+00  2.1479963E+01
 5.3482013E+00  2.1696989E+01
 5.3549328E+00  2.1583031E+01
 5.3616648E+00  2.1477137E+01
 5.3683963E+00  2.1516748E+01
 5.3751278E+00  2.1642960E+01
 5.3818593E+00  2.1458647E+01
 5.3885908E+00  2.1478125E+01
 5.3953223E+00  2.1450085E+01
 5.4020538E+00  2.1289152E+01
 5.4087853E+00  2.1382713E+01
 5.4155169E+00  2.1378397E+01
 5.4222484E+00  2.1357622E+01
 5.4289799E+00  2.1417093E+01
 5.4357114E+00  2.1431730E+01
 5.4424429E+00  2.1083529E+01
 5.4491744E+00  2.1129923E+01
 5.4559059E+00  2.1033300E+01
 5.4626374E+00  2.1342249E+01
 5.4693689E+00  2.1268431E+01
 5.4761004E+00  2.1062227E+01
 5.4828320E+00  2.1128403E+01
 5.4895635E+00  2.1097301E+01
 5.4962950E+00  2.1037624E+01
 5.5030265E+00  2.0899851E+01
 5.5097580E+00  2.0989685E+01
 5.5164900E+00  2.0803392E+01
 5.5232215E+00  2.0886957E+01
 5.5299530E+00  2.0866732E+01
 5.5366845E+00  2.0730572E+01
 5.5434160E+00  2.0725977E+01
 5.5501475E+00  2.1099787E+01
 5.5568790E+00  2.0967535E+01
 5.5636106E+00  2.0772873E+01
 5.5703421E+00  2.0811733E+01
 5.5770736E+00  2.0925488E+01
 5.5838051E+00  2.0838314E+01
 5.5905366E+00  2.0651085E+01
 5.5972681E+00  2.0488543E+01
 5.6039996E+00  2.0555927E+01
 5.6107311E+00  2.0733957E+01
 5.6174626E+00  2.0522131E+01
 5.6241941E+00  2.0587393E+01
 5.6309257E+00  2.0510944E+01
 5.6376572E+00  2.0437534E+01
 5.6443887E+00  2.0462278E+01
 5.6511202E+00  2.0522621E+01
 5.6578517E+00  2.0181166E+01
 5.6645832E+00  2.0057209E+01
 5.6713152E+00  2.0003309E+01
 5.6780467E+00  2.0040306E+01
 5.6847782E+00  2.0090851E+01
 5.6915097E+00  2.0162661E+01
 5.6982412E+00  1.9843752E+01
 5.7049727E+00  1.9835323E+01
 5.7117043E+00  1.9956360E+01
 5.7184358E+00  1.9835772E+01
 5.7251673E+00  1.9932024E+01
 5.7318988E+00  1.9880659E+01
 5.7386303E+00  1.9616554E+01
 5.7453618E+00  1.9375591E+01
 5.7520933E+00  1.9532913E+01
 5.7588248E+00  1.9293671E+01
 5.7655563E+00  1.9220009E+01
 5.7722878E+00  1.9056978E+01
 5.7790194E+00  1.9519424E+01
 5.7857509E+00  1.9343382E+01
 5.7924824E+00  1.9147024E+01
 5.7992139E+00  1.9274734E+01
 5.8059454E+00  1.8977291E+01
 5.8126769E+00  1.8909647E+01
 5.8194084E+00  1.8856657E+01
 5.8261404E+00  1.8917299E+01
 5.8328719E+00  1.8829622E+01
 5.8396034E+00  1.9008205E+01
 5.8463349E+00  1.8914921E+01
 5.8530664E+00  1.8676210E+01
 5.8597980E+00  1.8782272E+01
 5.8665295E+00  1.8518713E+01
 5.8732610E+00  1.8583275E+01
 5.8799925E+00  1.8419697E+01
 5.8867240E+00  1.8125080E+01
 5.8934555E+00  1.8153225E+01
 5.9001870E+00  1.8284145E+01
 5.9069185E+00  1.7945858E+01
 5.9136500E+00  1.7878948E+01
 5.9203815E+00  1.7869934E+01
 5.9271131E+00  1.7624899E+01
 5.9338446E+00  1.7526880E+01
 5.9405761E+00  1.8036736E+01
 5.9473076E+00  1.7647861E+01
 5.9540391E+00  1.7755215E+01
 5.9607706E+00  1.7321808E+01
 5.9675021E+00  1.7123569E+01
 5.9742341E+00  1.7238962E+01
 5.9809656E+00  1.6947390E+01
 5.9876971E+00  1.7128946E+01
 5.9944286E+00  1.7260216E+01
 6.0011601E+00  1.6696177E+01
 6.0078917E+00  1.6589991E+01
 6.0146232E+00  1.6907242E+01
 6.0213547E+00  1.6368217E+01
 6.0280862E+00  1.6315699E+01
 6.0348177E+00  1.6024488E+01
 6.0415492E+00  1.5413352E+01
 6.0482807E+00  1.5897347E+01
 6.0550122E+00  1.6109346E+01
 6.0617437E+00  1.5683224E+01
 6.0684752E+00  1.5703605E+01
 6.0752068E+00  1.5821669E+01
 6.0819383E+00  1.5536278E+01
 6.0886698E+00  1.5240952E+01
 6.0954013E+00  1.5497668E+01
 6.1021328E+00  1.5443948E+01
 6.1088643E+00  1.5228065E+01
 6.1155958E+00  1.5248009E+01
 6.1223273E+00  1.5259424E+01
 6.1290593E+00  1.5226049E+01
 6.1357908E+00  1.5132012E+01
 6.1425223E+00  1.5122661E+01
 6.1492538E+00  1.5131287E+01
 6.1559854E+00  1.5006645E+01
 6.1627169E+00  1.4765814E+01
 6.1694484E+00  1.4669027E+01
 6.1761799E+00  1.4293103E+01
 6.1829114E+00  1.4421135E+01
 6.1896429E+00  1.4625566E+01
 6.1963744E+00  1.4433810E+01
 6.2031059E+00  1.4489147E+01
 6.2098374E+00  1.4365016E+01
 6.2165689E+00  1.4125459E+01
 6.2233005E+00  1.3963575E+01
 6.2300320E+00  1.4140685E+01
 6.2367635E+00  1.4199840E+01
 6.2434950E+00  1.4005316E+01
 6.2502265E+00  1.3496209E+01
 6.2569580E+00  1.3822411E+01
 6.2636895E+00  1.3937507E+01
 6.2704210E+00  1.3763640E+01
 6.2771525E+00  1.3408300E+01
 6.2838845E+00  1.3377092E+01
 6.2906160E+00  1.3890642E+01
 6.2973475E+00  1.3959378E+01
 6.3040791E+00  1.3655982E+01
 6.3108106E+00  1.3724586E+01
 6.3175421E+00  1.3281620E+01
 6.3242736E+00  1.2956691E+01
 6.3310051E+00  1.3318841E+01
 6.3377366E+00  1.2876846E+01
 6.3444681E+00  1.2970279E+01
 6.3511996E+00  1.2743639E+01
 6.3579311E+00  1.2656822E+01
 6.3646626E+00  1.2776991E+01
 6.3713942E+00  1.2652422E+01
 6.3781257E+00  1.2860066E+01
 6.3848572E+00  1.3011828E+01
 6.3915887E+00  1.2182753E+01
 6.3983202E+00  1.2447969E+01
 6.4050517E+00  1.2790335E+01
 6.4117832E+00  1.2567503E+01
 6.4185147E+00  1.2362435E+01
 6.4252462E+00  1.2086177E+01
 6.4319777E+00  1.1470268E+01
 6.4387097E+00  1.1788616E+01
 6.4454412E+00  1.2133376E+01
 6.4521728E+00  1.2491663E+01
 6.4589043E+00  1.2707364E+01
 6.4656358E+00  1.1762260E+01
 6.4723673E+00  1.2467735E+01
 6.4790988E+00  1.0529974E+01
 6.4858303E+00  0.0000000E+00
 6.4925618E+00  0.0000000E+00
 6.4992933E+00  0.0000000E+00
 6.5060248E+00  0.0000000E+00
 6.5127563E+00  0.0000000E+00
 6.5194879E+00  0.0000000E+00
 6.5262194E+00  0.0000000E+00
 6.5329509E+00  0.0000000E+00
 6.5396824E+00  0.0000000E+00
 6.5464139E+00  0.0000000E+00
 6.5531454E+00  0.0000000E+00
 6.5598769E+00  0.0000000E+00
 6.5666084E+00  0.0000000E+00
 6.5733399E+00  0.0000000E+00
 6.5800714E+00  0.0000000E+00
 6.5868034E+00  0.0000000E+00
 6.5935349E+00  0.0000000E+00
 6.6002665E+00  0.0000000E+00
 6.6069980E+00  0.0000000E+00
 6.6137295E+00  0.0000000E+00
 6.6204610E+00  0.0000000E+00
 6.6271925E+00  0.0000000E+00
 6.6339240E+00  0.0000000E+00
 6.6406555E+00  0.0000000E+00
 6.6473870E+00  0.0000000E+00
 6.6541185E+00  0.0000000E+00
 6.6608500E+00  0.0000000E+00
 6.6675816E+00  0.0000000E+00
 6.6743131E+00  0.0000000E+00
 6.6810446E+00  0.0000000E+00
 6.6877761E+00  0.0000000E+00
 6.6945076E+00  0.0000000E+00
 6.7012391E+00  0.0000000E+00
 6.7079706E+00  0.0000000E+00
 6.7147021E+00  0.0000000E+00
 6.7214336E+00  0.0000000E+00
 6.7281651E+00  0.0000000E+00
 6.7348967E+00  0.0000000E+00
 6.7416286E+00  0.0000000E+00
