out/brina_200_1M_00030.chi
q [nm^-1]
Intensity
   1063
 0.000000000000000000e+00 0.000000000000000000e+00 0.000000000000000000e+00
 8.282891018326313248e-03 0.000000000000000000e+00 0.000000000000000000e+00
 1.656578195130714234e-02 0.000000000000000000e+00 0.000000000000000000e+00
 2.484867271359700314e-02 0.000000000000000000e+00 0.000000000000000000e+00
 3.313156321985042535e-02 0.000000000000000000e+00 0.000000000000000000e+00
 4.141445338472191096e-02 0.000000000000000000e+00 0.000000000000000000e+00
 4.969734312286601396e-02 0.000000000000000000e+00 0.000000000000000000e+00
 5.798023234893723982e-02 0.000000000000000000e+00 0.000000000000000000e+00
 6.626312097759014252e-02 0.000000000000000000e+00 0.000000000000000000e+00
 7.454600892347923446e-02 0.000000000000000000e+00 0.000000000000000000e+00
 8.282889610125911128e-02 0.000000000000000000e+00 0.000000000000000000e+00
 9.111178242558426454e-02 0.000000000000000000e+00 0.000000000000000000e+00
 9.939466781110931071e-02 0.000000000000000000e+00 0.000000000000000000e+00
 1.076775521724888246e-01 0.000000000000000000e+00 0.000000000000000000e+00
 1.159604354243773811e-01 0.000000000000000000e+00 0.000000000000000000e+00
 1.242433174814295271e-01 0.000000000000000000e+00 0.000000000000000000e+00
 1.325261982582999765e-01 0.000000000000000000e+00 0.000000000000000000e+00
 1.408090776696432622e-01 0.000000000000000000e+00 0.000000000000000000e+00
 1.490919556301140425e-01 0.000000000000000000e+00 0.000000000000000000e+00
 1.573748320543669754e-01 0.000000000000000000e+00 0.000000000000000000e+00
 1.656577068570567746e-01 0.000000000000000000e+00 0.000000000000000000e+00
 1.739405799528380148e-01 0.000000000000000000e+00 0.000000000000000000e+00
 1.822234512563655207e-01 0.000000000000000000e+00 0.000000000000000000e+00
 1.905063206822939226e-01 0.000000000000000000e+00 0.000000000000000000e+00
 1.987891881452779341e-01 0.000000000000000000e+00 0.000000000000000000e+00
 2.070720535599724632e-01 0.000000000000000000e+00 0.000000000000000000e+00
 2.153549168410321957e-01 0.000000000000000000e+00 0.000000000000000000e+00
 2.236377779031119006e-01 1.992101100462508839e+04 1.785318391979429009e+02
 2.319206366608664027e-01 3.559301337681092991e+04 9.289030790921793823e+01
 2.402034930289506376e-01 3.436547572335746372e+04 5.670522999352213134e+01
 2.484863469220194576e-01 3.150149604691434070e+04 4.786457870201139286e+01
 2.567691982547277152e-01 2.797488453804202800e+04 3.962978467913546865e+01
 2.650520469417302905e-01 2.485009612247259793e+04 3.356113773236999975e+01
 2.733348928976822578e-01 2.243020347469828266e+04 3.053136584313255852e+01
 2.816177360372385530e-01 2.002423309286354561e+04 2.644875284888889411e+01
 2.899005762750541670e-01 1.818500339383043320e+04 2.393232150051699847e+01
 2.981834135257842022e-01 1.673090493244518075e+04 2.212208434890111519e+01
 3.064662477040835387e-01 1.547944478397993225e+04 2.026651268858758215e+01
 3.147490787246074451e-01 1.439149824723267193e+04 1.869262478841886121e+01
 3.230319065020110791e-01 1.353113901449189507e+04 1.770060642390685146e+01
 3.313147309509495986e-01 1.275751323308948304e+04 1.668748997289301172e+01
 3.395975519860781056e-01 1.206200927003059405e+04 1.555135998535488540e+01
 3.478803695220519243e-01 1.151796062327725667e+04 1.492777330776348421e+01
 3.561631834735261570e-01 1.097866833980733099e+04 1.416063637852772317e+01
 3.644459937551564055e-01 1.053880823981901995e+04 1.359002806878265623e+01
 3.727288002815978829e-01 1.012764047627743275e+04 1.301922651378320239e+01
 3.810116029675059135e-01 9.755899385917226027e+03 1.245646056134636304e+01
 3.892944017275360435e-01 9.431749903879777776e+03 1.208665062745671825e+01
 3.975771964763435418e-01 9.047740948855313036e+03 1.200181807047171745e+01
 4.058599871285842320e-01 8.568818037872961213e+03 1.296210013687185381e+01
 4.141427735989132719e-01 8.309528676987643848e+03 1.347698193661876509e+01
 4.224255558019865964e-01 8.104448847645794558e+03 1.411338665563471650e+01
 4.307083336524596962e-01 7.957382867291188631e+03 1.447082624790776961e+01
 4.389911070649882840e-01 7.818554231885302215e+03 1.469886955989471211e+01
 4.472738759542279618e-01 7.680398769661533152e+03 1.496117503120532533e+01
 4.555566402348347199e-01 7.569864208185920688e+03 1.557950887722911304e+01
 4.638393998214642155e-01 7.458661098230889365e+03 1.591768752553930355e+01
 4.721221546287724391e-01 7.354884345667046546e+03 1.582337010736407201e+01
 4.804049045714152144e-01 7.250056968170380969e+03 1.634879831057407529e+01
 4.886876495640486984e-01 7.174388812780251101e+03 1.675293070040368093e+01
 4.969703895213286593e-01 7.073113632556704033e+03 1.696949951511997767e+01
 5.052531243579111431e-01 6.993800748599746839e+03 1.739064768680211159e+01
 5.135358539884525841e-01 6.932395374867598548e+03 1.748027822192562297e+01
 5.218185783276089174e-01 6.877421704202713045e+03 1.815095940019246967e+01
 5.301012972900364106e-01 6.836036526661972857e+03 1.834511751658202883e+01
 5.383840107903915539e-01 6.836710393708185620e+03 1.817898310924448424e+01
 5.466667187433302821e-01 6.866922239290440302e+03 1.324810890288236820e+01
 5.549494210635095293e-01 6.772576706234970516e+03 1.190941086478597200e+01
 5.632321176655852302e-01 6.670630236827575573e+03 1.110798722105715441e+01
 5.715148084642142079e-01 6.567151328061560889e+03 1.042941478724153015e+01
 5.797974933740530634e-01 6.478947019786766759e+03 9.955116881237971782e+00
 5.880801723097583977e-01 6.413292896132979877e+03 9.554706984922628266e+00
 5.963628451859867008e-01 6.364827175294211884e+03 9.227577668924979548e+00
 6.046455119173949067e-01 6.318335892766212055e+03 9.018322918239862318e+00
 6.129281724186399494e-01 6.243648637753761250e+03 8.692876133046722131e+00
 6.212108266043785409e-01 6.186835435122831768e+03 8.451088668565587270e+00
 6.294934743892678375e-01 6.123577997041659728e+03 8.274519835820916214e+00
 6.377761156879645510e-01 6.098033930339349354e+03 8.124893790725810305e+00
 6.460587504151260596e-01 6.062308816090602704e+03 7.949225724180545072e+00
 6.543413784854094084e-01 6.002893244427997161e+03 7.733347590191119281e+00
 6.626239998134720866e-01 5.974503027440438018e+03 7.540966775961112312e+00
 6.709066143139708061e-01 5.933513389700982771e+03 7.422894977063858590e+00
 6.791892219015631671e-01 5.902112819229548222e+03 7.289874149397459036e+00
 6.874718224909069919e-01 5.864346362729926113e+03 7.144914633237835488e+00
 6.957544159966593256e-01 5.830338428997148185e+03 7.018056921130916948e+00
 7.040370023334781013e-01 5.798272614280579546e+03 6.895736722454469003e+00
 7.123195814160205863e-01 5.767566511053983959e+03 6.796081136010598378e+00
 7.206021531589449358e-01 5.739598249301577198e+03 6.673542154136619331e+00
 7.288847174769086390e-01 5.701570943303559943e+03 6.581548320623591408e+00
 7.371672742845696291e-01 5.678745543997441018e+03 6.479739813583342389e+00
 7.454498234965860615e-01 5.649324871706994600e+03 6.405470240360311429e+00
 7.537323650276155362e-01 5.608329499783747451e+03 6.376400474173592237e+00
 7.620148987923167638e-01 5.587930344548082758e+03 6.302280602095359896e+00
 7.702974247053477885e-01 5.565897363926354046e+03 6.237415738872061688e+00
 7.785799426813664326e-01 5.551937901421045353e+03 6.140371513080365773e+00
 7.868624526350316284e-01 5.529949734175783306e+03 6.064189605564892283e+00
 7.951449544810013093e-01 5.506942800174054355e+03 5.989645136489203381e+00
 8.034274481339344076e-01 5.494392735802360221e+03 5.876119798441769682e+00
 8.117099335084893008e-01 5.481318325075017128e+03 5.810090940459772924e+00
 8.199924105193249213e-01 5.456637403938025273e+03 5.719370780232000406e+00
 8.282748790810998685e-01 5.436316080428199712e+03 5.661185941685861422e+00
 8.365573391084727417e-01 5.420203412616990136e+03 5.601428085748214158e+00
 8.448397905161031396e-01 5.398921739639159568e+03 5.543487653647520830e+00
 8.531222332186496615e-01 5.382893760558305075e+03 5.502078219568225848e+00
 8.614046671307716840e-01 5.362111618943562462e+03 5.478943275875182373e+00
 8.696870921671282506e-01 5.342604054718658517e+03 5.458473571561834881e+00
 8.779695082423782937e-01 5.326445107420940985e+03 5.433195436331307526e+00
 8.862519152711821890e-01 5.312333204319399556e+03 5.398019268428097206e+00
 8.945343131681986470e-01 5.296275064182206734e+03 5.375133139334270282e+00
 9.028167018480877104e-01 5.282216503308934080e+03 5.330864062416586613e+00
 9.110990812255088667e-01 5.258390256599640452e+03 5.260773535577223825e+00
 9.193814512151218254e-01 5.256394810093381238e+03 5.211989165368066779e+00
 9.276638117315866294e-01 5.239382876063877120e+03 5.163673700655287746e+00
 9.359461626895632103e-01 5.221344186872363935e+03 5.112670063512287477e+00
 9.442285040037114996e-01 5.215696909221509486e+03 5.059497251496138936e+00
 9.525108355886920952e-01 5.198787551000066742e+03 5.020581905667456546e+00
 9.607931573591649288e-01 5.190471230858162016e+03 4.962718054698472159e+00
 9.690754692297903761e-01 5.177350427999231215e+03 4.933089515152621729e+00
 9.773577711152288128e-01 5.164661084576007852e+03 4.872942458612369521e+00
 9.856400629301415028e-01 5.156351043639027012e+03 4.838528234517923465e+00
 9.939223445891883779e-01 5.145646198971952799e+03 4.804954537278622873e+00
 1.002204616007030369e+00 5.136849068825840732e+03 4.760303210508006977e+00
 1.010486877098328851e+00 5.125169057100772989e+03 4.721806944888729873e+00
 1.018769127777744199e+00 5.120118071158130078e+03 4.688981875652891596e+00
 1.027051367959938233e+00 5.101451854158572132e+03 4.646260427534172344e+00
 1.035333597559571439e+00 5.100119028918740696e+03 4.615237676481569018e+00
 1.043615816491305415e+00 5.088119117846331392e+03 4.574712709187807036e+00
 1.051898024669801757e+00 5.082508254723414211e+03 4.549440853926286721e+00
 1.060180222009722062e+00 5.068779775585545394e+03 4.514089512067408272e+00
 1.068462408425727928e+00 5.062953298808437467e+03 4.479531318953691610e+00
 1.076744583832480728e+00 5.063135331714930544e+03 4.465255849058184623e+00
 1.085026748144642728e+00 5.052422637275662055e+03 4.408219000770327689e+00
 1.093308901276876188e+00 5.043600110350870636e+03 4.384389176724726944e+00
 1.101591043143842708e+00 5.028991005701098402e+03 4.359382675352100556e+00
 1.109873173660204992e+00 5.020806137204842344e+03 4.336925201676300468e+00
 1.118155292740624862e+00 5.012613771488870043e+03 4.303761187210653816e+00
 1.126437400299765024e+00 5.006377517185246688e+03 4.279395244287165667e+00
 1.134719496252288407e+00 4.998590117030276815e+03 4.256646549132550916e+00
 1.143001580512857496e+00 4.990460004557959110e+03 4.226457628783614418e+00
 1.151283652996134776e+00 4.984357014851025269e+03 4.205565919779957085e+00
 1.159565713616783622e+00 4.981294713318845425e+03 4.186208757142630077e+00
 1.167847762289466962e+00 4.976720758326379837e+03 4.162378963582160196e+00
 1.176129798928847947e+00 4.965785513601314051e+03 4.134480141020554278e+00
 1.184411823449590173e+00 4.962909792962014762e+03 4.114295356642092116e+00
 1.192693835766356347e+00 4.957995950795422686e+03 4.092674714689015225e+00
 1.200975835793810953e+00 4.955661956144923352e+03 4.068581983009237568e+00
 1.209257823446617142e+00 4.949820960235831080e+03 4.056877808967613852e+00
 1.217539798639438953e+00 4.939542255278873199e+03 4.032600588589321688e+00
 1.225821761286940648e+00 4.932727764709721669e+03 4.010063853593000438e+00
 1.234103711303785378e+00 4.925172064927336578e+03 3.980718484632959964e+00
 1.242385648604638071e+00 4.911959231712859037e+03 3.957115897949904593e+00
 1.250667573104162988e+00 4.912805153116265501e+03 3.953127016768851920e+00
 1.258949484717024170e+00 4.903966139327974815e+03 3.917381124387032454e+00
 1.267231383357886987e+00 4.901252757667729384e+03 3.907898877447463448e+00
 1.275513268941415479e+00 4.895359404440815524e+03 3.885922710197724950e+00
 1.283795141382275462e+00 4.898639996794678154e+03 3.867146933491377059e+00
 1.292077000595130754e+00 4.884278533675974359e+03 3.853394893070397842e+00
 1.300358846494647169e+00 4.881579355854244568e+03 3.829837631088427674e+00
 1.308640678995489637e+00 4.872591498743138800e+03 3.818430592533084145e+00
 1.316922498012323972e+00 4.867029198711049503e+03 3.783837158264146350e+00
 1.325204303459816213e+00 4.861823534555543119e+03 3.782856466355739133e+00
 1.333486095252630399e+00 4.857723645697613392e+03 3.753740661065565476e+00
 1.341767873305433900e+00 4.849981010526708815e+03 3.744304827238597699e+00
 1.350049637532892088e+00 4.844707669942081338e+03 3.732838921469678883e+00
 1.358331387849671223e+00 4.844416734522046681e+03 3.704204472727573361e+00
 1.366613124170437343e+00 4.839578734041770986e+03 3.697122273587249985e+00
 1.374894846409857596e+00 4.833042401027732922e+03 3.674571500789320933e+00
 1.383176554482598242e+00 4.825896551040235863e+03 3.660049923642263892e+00
 1.391458248303325096e+00 4.821354287066076722e+03 3.648528929104918550e+00
 1.399739927786705973e+00 4.816357911055455588e+03 3.617110032551812626e+00
 1.408021592847407577e+00 4.816898842031406275e+03 3.616392282336430064e+00
 1.416303243400097500e+00 4.811550960557413418e+03 3.590999715436883122e+00
 1.424584879359441336e+00 4.808751108207024117e+03 3.590255461989324104e+00
 1.432866500640109120e+00 4.802350687581784769e+03 3.568192610960916777e+00
 1.441148107156766667e+00 4.803550503045633377e+03 3.548410938923161062e+00
 1.449429698824082013e+00 4.800112749198070560e+03 3.539899236217447953e+00
 1.457711275556723640e+00 4.797791732623599273e+03 3.524125089713725956e+00
 1.465992837269358917e+00 4.797108568693028246e+03 3.522734503626089086e+00
 1.474274383876656547e+00 4.788457865382521049e+03 3.489502144137694106e+00
 1.482555915293284565e+00 4.785395135726869739e+03 3.488386011190413694e+00
 1.490837431433911897e+00 4.776942396376929537e+03 3.469623334479920551e+00
 1.499118932213207023e+00 4.773127875302214306e+03 3.455471366504647257e+00
 1.507400417545837978e+00 4.773849647721945985e+03 3.443639733361944177e+00
 1.515681887346475243e+00 4.758660006674640499e+03 3.427001692374307407e+00
 1.523963341529786852e+00 4.757426050080580353e+03 3.418919053451760171e+00
 1.532244780010442842e+00 4.754478828114642056e+03 3.403258032080787032e+00
 1.540526202703112579e+00 4.742447932783675242e+03 3.386085310042719065e+00
 1.548807609522464990e+00 4.735744609023535304e+03 3.372752021632482222e+00
 1.557089000383170552e+00 4.738157406530697699e+03 3.356023074815528862e+00
 1.565370375199899078e+00 4.735611124841710080e+03 3.358115944905652128e+00
 1.573651733887320825e+00 4.720489832114557430e+03 3.330274014157605045e+00
 1.581933076360106494e+00 4.714464581873494353e+03 3.322785075824989054e+00
 1.590214402532925009e+00 4.708771956456857879e+03 3.308452743050980693e+00
 1.598495712320448403e+00 4.701700217829134999e+03 3.299502297364479642e+00
 1.606777005637347600e+00 4.690675230522853781e+03 3.285897631816867115e+00
 1.615058282398292855e+00 4.683023657276918129e+03 3.266110815193327355e+00
 1.623339542517955758e+00 4.676895774402337338e+03 3.265135553889590536e+00
 1.631620785911007232e+00 4.671730829317250937e+03 3.249702602713962385e+00
 1.639902012492119088e+00 4.658099163178225353e+03 3.234237600681709957e+00
 1.648183222175963358e+00 4.646777036202196541e+03 3.219927159625593394e+00
 1.656464414877210523e+00 4.643753814756144493e+03 3.210607355128289875e+00
 1.664745590510534390e+00 4.630205557282456539e+03 3.198827671058961819e+00
 1.673026748990605217e+00 4.622665199946600296e+03 3.183495805966777059e+00
 1.681307890232097257e+00 4.616104749205272128e+03 3.176451864321309326e+00
 1.689589014149681878e+00 4.604403298894811087e+03 3.163790825718692190e+00
 1.697870120658032445e+00 4.597145596229584953e+03 3.150612680378895192e+00
 1.706151209671821434e+00 4.589761990295814030e+03 3.140251248410967033e+00
 1.714432281105722433e+00 4.581230171138292462e+03 3.124144255417283578e+00
 1.722713334874407698e+00 4.568622090396486783e+03 3.112185206541803417e+00
 1.730994370892551482e+00 4.565535999617142807e+03 3.108046735262999238e+00
 1.739275389074827372e+00 4.547193661005741887e+03 3.093015579478548993e+00
 1.747556389335909399e+00 4.540260505358512091e+03 3.076530218780014536e+00
 1.755837371590470042e+00 4.532681372362480033e+03 3.069365685331147731e+00
 1.764118335753185551e+00 4.518533729009867784e+03 3.055259087363580761e+00
 1.772399281738729293e+00 4.509750368511079614e+03 3.046002063514899660e+00
 1.780680209461775965e+00 4.501694556798997837e+03 3.034319712084669884e+00
 1.788961118837000264e+00 4.496496895944369498e+03 3.027926396254193353e+00
 1.797242009779077554e+00 4.489654551124405771e+03 3.015073764833843928e+00
 1.805522882202682089e+00 4.477045410124615046e+03 3.001545037978974761e+00
 1.813803736022489677e+00 4.466323810214296827e+03 2.993809846859137203e+00
 1.822084571153175681e+00 4.454865886631970170e+03 2.974340102037007494e+00
 1.830365387509416353e+00 4.443855150650045289e+03 2.974356044525757525e+00
 1.838646185005886613e+00 4.438006101630999183e+03 2.962096265683072716e+00
 1.846926963557263379e+00 4.426153391287454724e+03 2.949404538942106857e+00
 1.855207723078222459e+00 4.413585735929145812e+03 2.935136529300560682e+00
 1.863488463483440993e+00 4.404760916392481704e+03 2.927383433597408047e+00
 1.871769184687595011e+00 4.396362115429900769e+03 2.918211039581427801e+00
 1.880049886605361653e+00 4.388152890285027752e+03 2.903906731066557168e+00
 1.888330569151417393e+00 4.378292511593339441e+03 2.896470703664175250e+00
 1.896611232240440703e+00 4.371983243053597107e+03 2.886959052954699789e+00
 1.904891875787107836e+00 4.362475168800472602e+03 2.872376029434339006e+00
 1.913172499706096819e+00 4.351897610791486841e+03 2.868044229955485580e+00
 1.921453103912086124e+00 4.341101826883378635e+03 2.853215367148632886e+00
 1.929733688319753337e+00 4.330336910374398030e+03 2.845842283245741733e+00
 1.938014252843776708e+00 4.323434838312387910e+03 2.833818404320354034e+00
 1.946294797398835152e+00 4.312120577221430722e+03 2.827810946088453292e+00
 1.954575321899606921e+00 4.307898038575410283e+03 2.819409157741250116e+00
 1.962855826260770709e+00 4.299096666591027315e+03 2.806029832105297661e+00
 1.971136310397006319e+00 4.286982681180239524e+03 2.795999187083139326e+00
 1.979416774222992670e+00 4.282232183539550533e+03 2.788101459777794222e+00
 1.987697217653409121e+00 4.271881531700285450e+03 2.779688459130249978e+00
 1.995977640602935699e+00 4.255045388010511488e+03 2.773891902967729362e+00
 2.004258042986251986e+00 4.247492349531967193e+03 2.754821722707033071e+00
 2.012538424718038677e+00 4.240797674352419563e+03 2.754034148309666197e+00
 2.020818785712976240e+00 4.235404064110178297e+03 2.739299351551680139e+00
 2.029099125885744481e+00 4.223111195553860853e+03 2.732599317628976898e+00
 2.037379445151024537e+00 4.215271249227852422e+03 2.722251196233061332e+00
 2.045659743423497989e+00 4.207149837988499712e+03 2.714858834643453012e+00
 2.053940020617845530e+00 4.200084264418060229e+03 2.711390928059239869e+00
 2.062220276648748296e+00 4.188308318524564129e+03 2.692897532609312083e+00
 2.070500511430888757e+00 4.177010406556355520e+03 2.686067597629890447e+00
 2.078780724878947606e+00 4.171840371914289790e+03 2.678483539310987371e+00
 2.087060916907608199e+00 4.160345449819928945e+03 2.670059925566741654e+00
 2.095341087431552562e+00 4.151386659422643788e+03 2.661630623472490687e+00
 2.103621236365462721e+00 4.142591080969868017e+03 2.652170430159039416e+00
 2.111901363624022032e+00 4.131434034457050984e+03 2.645650145428692479e+00
 2.120181469121912965e+00 4.124104932860108420e+03 2.630520699233165338e+00
 2.128461552773819321e+00 4.112223630145261268e+03 2.624390546156337045e+00
 2.136741614494424457e+00 4.102262105411216908e+03 2.617240371067126148e+00
 2.145021654198411287e+00 4.095665779950750675e+03 2.610100823789256896e+00
 2.153301671800464501e+00 4.084840819527844360e+03 2.599497571715779998e+00
 2.161581667215267455e+00 4.077725611432650567e+03 2.591078337351155891e+00
 2.169861640357505728e+00 4.068205262088574273e+03 2.582212732745693629e+00
 2.178141591141862676e+00 4.068726380345355210e+03 2.615956303545384998e+00
 2.186421519483023879e+00 4.072526529725321780e+03 2.678558917895156100e+00
 2.194701425295674468e+00 4.069769786023363395e+03 2.719753610942398758e+00
 2.202981308494498691e+00 4.062169650642792021e+03 2.741772425224945575e+00
 2.211261168994183457e+00 4.064115774430205875e+03 2.769467804750205708e+00
 2.219541006709413455e+00 4.060685805680886006e+03 2.788935332456839333e+00
 2.227820821554874708e+00 4.056404157755073356e+03 2.808729090001159445e+00
 2.236100613445254570e+00 4.050775989344476784e+03 2.824342882420325829e+00
 2.244380382295237286e+00 4.046285989635393435e+03 2.833960667449851201e+00
 2.252660128019511543e+00 4.040760374537837379e+03 2.850293433230540074e+00
 2.260939850532763806e+00 4.035282838534998064e+03 2.864787456565101031e+00
 2.269219549749680986e+00 4.028175401324924678e+03 2.882672318057561966e+00
 2.277499225584950437e+00 4.024317222732611299e+03 2.881291478357315583e+00
 2.285778877953259958e+00 4.013721949631149982e+03 2.882331221806234023e+00
 2.294058506769297345e+00 4.006638060979230886e+03 2.880345542799626735e+00
 2.302338111947751287e+00 3.998551786941332921e+03 2.896239555890658401e+00
 2.310617693403309136e+00 3.990826004193912922e+03 2.903737876832001241e+00
 2.318897251050660469e+00 3.975323320452352618e+03 2.871111839392962661e+00
 2.327176784804492637e+00 3.951936217617268539e+03 2.784878379323104003e+00
 2.335456294579496994e+00 3.939683501163086021e+03 2.725134693439142275e+00
 2.343735780290361337e+00 3.927243802262893951e+03 2.697882632369897227e+00
 2.352015241851775684e+00 3.910836552663553448e+03 2.669152470527065724e+00
 2.360294679178430055e+00 3.902765712077641638e+03 2.641993743453489252e+00
 2.368574092185014024e+00 3.889910143935250744e+03 2.621570667202485438e+00
 2.376853480786218054e+00 3.877032527363949612e+03 2.601050159105029902e+00
 2.385132844896733495e+00 3.862545112637695638e+03 2.586752107613162099e+00
 2.393412184431250367e+00 3.850243489745952047e+03 2.563822466924175814e+00
 2.401691499304460464e+00 3.844904578527246485e+03 2.548618645658133453e+00
 2.409970789431054250e+00 3.835264355568051997e+03 2.542336483130793301e+00
 2.418250054725723963e+00 3.829057912591874810e+03 2.531097535049261271e+00
 2.426529295103161843e+00 3.818715859082570205e+03 2.530987525740514776e+00
 2.434808510478059240e+00 3.807954227631940739e+03 2.511278103822995433e+00
 2.443087700765109282e+00 3.798622579447856424e+03 2.500446648120136839e+00
 2.451366865879003765e+00 3.791028219557275861e+03 2.491418992314149872e+00
 2.459646005734436258e+00 3.777651821487445432e+03 2.474265995303855270e+00
 2.467925120246099890e+00 3.772825241379274303e+03 2.472058961149001810e+00
 2.476204209328687789e+00 3.767557292665150271e+03 2.455954131224980408e+00
 2.484483272896893524e+00 3.759269087135148311e+03 2.445190544441167013e+00
 2.492762310865411113e+00 3.748514597511311422e+03 2.439993229603377500e+00
 2.501041323148935902e+00 3.735740319665738753e+03 2.423950847087826155e+00
 2.509320309662160131e+00 3.723185102755726803e+03 2.419042042858506214e+00
 2.517599270319780924e+00 3.718325338856196140e+03 2.403689287956478626e+00
 2.525878205036491853e+00 3.712193223748847686e+03 2.397635053583516473e+00
 2.534157113726988264e+00 3.704328154285860819e+03 2.387480378366569678e+00
 2.542435996305966839e+00 3.699594113180737168e+03 2.378986347336978113e+00
 2.550714852688121148e+00 3.688255655639185534e+03 2.373296659199845671e+00
 2.558993682788150092e+00 3.680050144792810443e+03 2.360426367005380222e+00
 2.567272486520748132e+00 3.668802005756156177e+03 2.353589194817469643e+00
 2.575551263800612833e+00 3.663717356705881684e+03 2.346318425283803855e+00
 2.583830014542439546e+00 3.656936819874450975e+03 2.336151868251195474e+00
 2.592108738660928058e+00 3.643230668785944090e+03 2.326351381701458720e+00
 2.600387436070773273e+00 3.638636041493160064e+03 2.319185077933736405e+00
 2.608666106686674091e+00 3.633040268877553899e+03 2.312386095508217387e+00
 2.616944750423328969e+00 3.624353842976048327e+03 2.302851287009056058e+00
 2.625223367195435475e+00 3.618496240957404098e+03 2.296165082816085334e+00
 2.633501956917692066e+00 3.612484030902002360e+03 2.290401267167521571e+00
 2.641780519504797642e+00 3.601548037224889868e+03 2.278982256575559973e+00
 2.650059054871451547e+00 3.593771617011089347e+03 2.273551197541078484e+00
 2.658337562932353570e+00 3.585995610722565289e+03 2.265901893055833227e+00
 2.666616043602202613e+00 3.581622868957944775e+03 2.259068384043230626e+00
 2.674894496795699794e+00 3.571653808705515985e+03 2.249022937267847855e+00
 2.683172922427544016e+00 3.565043693135389276e+03 2.245053846743618742e+00
 2.691451320412435511e+00 3.559226627987323809e+03 2.239267615710041959e+00
 2.699729690665076731e+00 3.549877448444548463e+03 2.230342972586185191e+00
 2.708008033100168355e+00 3.544730927395430172e+03 2.225414732886936253e+00
 2.716286347632410614e+00 3.539180539844823215e+03 2.214313762594859458e+00
 2.724564634176505962e+00 3.531525804152332512e+03 2.211247814562442127e+00
 2.732842892647156408e+00 3.524757707659539392e+03 2.201899176398751656e+00
 2.741121122959064405e+00 3.515348627355117969e+03 2.198202523229873862e+00
 2.749399325026931962e+00 3.507437915770069139e+03 2.189435615020276948e+00
 2.757677498765461976e+00 3.501194788027326467e+03 2.184874927725364291e+00
 2.765955644089357790e+00 3.492078830710108832e+03 2.176933227609241239e+00
 2.774233760913324076e+00 3.489840146273904793e+03 2.170627293056498264e+00
 2.782511849152061956e+00 3.485608901620742927e+03 2.163567860661974152e+00
 2.790789908720276991e+00 3.474113270665647178e+03 2.160722723677199308e+00
 2.799067939532673410e+00 3.471019495342719438e+03 2.150388922193622321e+00
 2.807345941503955000e+00 3.461447993439554011e+03 2.149301870741601395e+00
 2.815623914548828211e+00 3.453881911497366673e+03 2.139203899649604335e+00
 2.823901858581996382e+00 3.452494289886947172e+03 2.132514339135422876e+00
 2.832179773518166854e+00 3.442244499848949545e+03 2.129346474189771854e+00
 2.840457659272043855e+00 3.436869315600067239e+03 2.118546528527480266e+00
 2.848735515758333836e+00 3.430505911015609399e+03 2.117621649943158602e+00
 2.857013342891743690e+00 3.419807026393521937e+03 2.107184520272192163e+00
 2.865291140586980312e+00 3.414984353917898261e+03 2.102288989940367170e+00
 2.873568908758749707e+00 3.410587800856470494e+03 2.098306193772161876e+00
 2.881846647321760102e+00 3.405249010085267400e+03 2.090935111910815714e+00
 2.890124356190718835e+00 3.396138603189243895e+03 2.087298896049312180e+00
 2.898402035280333688e+00 3.392573105075292460e+03 2.079626936223274214e+00
 2.906679684505312000e+00 3.387833409234535338e+03 2.076272188110558581e+00
 2.914957303780364661e+00 3.381359874052858231e+03 2.069356199097566851e+00
 2.923234893020198122e+00 3.376357951231389961e+03 2.063338748651294186e+00
 2.931512452139522829e+00 3.366219686511486543e+03 2.059021950730805628e+00
 2.939789981053047452e+00 3.363605894121964866e+03 2.054425612993016959e+00
 2.948067479675482883e+00 3.360853250553374892e+03 2.048290609792048578e+00
 2.956344947921537791e+00 3.353267699514955893e+03 2.045818164668181005e+00
 2.964622385705923513e+00 3.346449386913413036e+03 2.035812012729520948e+00
 2.972899792943350938e+00 3.341355942947911899e+03 2.033789900827815078e+00
 2.981177169548529626e+00 3.336686630304614027e+03 2.027823601233504469e+00
 2.989454515436173132e+00 3.334669063504959922e+03 2.022774946163851340e+00
 2.997731830520991458e+00 3.326015016661216578e+03 2.018601100579382912e+00
 3.006009114717697273e+00 3.321952284873582812e+03 2.013901260618830680e+00
 3.014286367941001465e+00 3.315945485549274508e+03 2.009551097483059934e+00
 3.022563590105618037e+00 3.309167966311854343e+03 2.000806722620038780e+00
 3.030840781126260985e+00 3.306077699825385480e+03 1.997984857511797996e+00
 3.039117940917641647e+00 3.303455580588733937e+03 1.996062936457740244e+00
 3.047395069394473577e+00 3.297223076973873049e+03 1.989460737845198279e+00
 3.055672166471472107e+00 3.291491997509595421e+03 1.983420334476049041e+00
 3.063949232063350347e+00 3.289217205965388985e+03 1.979263409865884782e+00
 3.072226266084823632e+00 3.284641812747950553e+03 1.975168185909342178e+00
 3.080503268450605958e+00 3.284370626593493398e+03 1.971795991899491618e+00
 3.088780239075412215e+00 3.277674877875775110e+03 1.965934328786009821e+00
 3.097057177873959510e+00 3.275857886758765744e+03 1.963436860032637288e+00
 3.105334084760962732e+00 3.270551139387706826e+03 1.957818029822856465e+00
 3.113610959651137655e+00 3.264863171618914748e+03 1.952970171356698481e+00
 3.121887802459201389e+00 3.259759913398826484e+03 1.950162163571268037e+00
 3.130164613099871040e+00 3.260237987527251335e+03 1.945770222651715953e+00
 3.138441391487863275e+00 3.259271706868184992e+03 1.940979069403100610e+00
 3.146718137537894755e+00 3.254054714401499496e+03 1.938025421850735119e+00
 3.154994851164685699e+00 3.251455382756095787e+03 1.933975362675658838e+00
 3.163271532282951881e+00 3.251999995712297277e+03 1.931985544534321919e+00
 3.171548180807412187e+00 3.251172701781805245e+03 1.926632822014259228e+00
 3.179824796652786389e+00 3.246793883438281227e+03 1.924099660155400127e+00
 3.188101379733793816e+00 3.244501792444889816e+03 1.918572643128613420e+00
 3.196377929965152465e+00 3.242761510256199017e+03 1.917174620837953425e+00
 3.204654447261584771e+00 3.242765916366172860e+03 1.913789521688151529e+00
 3.212930931537807844e+00 3.240440823633687160e+03 1.909534510404706342e+00
 3.221207382708544564e+00 3.242244896223091018e+03 1.907518787823837547e+00
 3.229483800688513817e+00 3.242594744635143797e+03 1.903753226518350106e+00
 3.237760185392439816e+00 3.244276090132809259e+03 1.903382656996076561e+00
 3.246036536735040556e+00 3.241659184446423296e+03 1.898247858419829459e+00
 3.254312854631040697e+00 3.245957042022110727e+03 1.896740592014794391e+00
 3.262589138995160454e+00 3.248626022367968289e+03 1.895944867441955672e+00
 3.270865389742124041e+00 3.250678937836730256e+03 1.892751652228182202e+00
 3.279141606786652563e+00 3.252935605612372910e+03 1.890480924905722171e+00
 3.287417790043471122e+00 3.256354199466739374e+03 1.889269903445925713e+00
 3.295693939427303487e+00 3.261733050533707683e+03 1.885412487271384219e+00
 3.303970054852871652e+00 3.266454330004920848e+03 1.887162211255219990e+00
 3.312246136234902050e+00 3.265883991864463496e+03 1.885135714329660761e+00
 3.320522183488118451e+00 3.271727736231299332e+03 1.882027845112138609e+00
 3.328798196527245512e+00 3.277121291014757389e+03 1.880527138819823252e+00
 3.337074175267008780e+00 3.283356574540248857e+03 1.878833807388450294e+00
 3.345350119622133800e+00 3.288522980442894550e+03 1.878482038268255438e+00
 3.353626029507347894e+00 3.296768735473607194e+03 1.878506439748965251e+00
 3.361901904837376609e+00 3.304306725167214154e+03 1.876327216269285891e+00
 3.370177745526946378e+00 3.311448116432623920e+03 1.876854531083982147e+00
 3.378453551490785411e+00 3.320099756492307279e+03 1.876437538743294331e+00
 3.386729322643620588e+00 3.329595358435572962e+03 1.877874676538792142e+00
 3.395005058900179229e+00 3.338302174892653056e+03 1.876667306486499376e+00
 3.403280760175190434e+00 3.348463090927463327e+03 1.876553901563679405e+00
 3.411556426383382412e+00 3.359806460389904260e+03 1.875174915375827256e+00
 3.419832057439484263e+00 3.368496734624811779e+03 1.879012427016963249e+00
 3.428107653258225973e+00 3.379451760968141571e+03 1.878377491790005793e+00
 3.436383213754335753e+00 3.390027432840456186e+03 1.877154258241591878e+00
 3.444658738842544476e+00 3.401872406119699917e+03 1.878174926956633239e+00
 3.452934228437583020e+00 3.413532197948596149e+03 1.879746953756211481e+00
 3.461209682454181813e+00 3.425709910909407881e+03 1.878000930763735532e+00
 3.469485100807071287e+00 3.434802146592133795e+03 1.883523864647744794e+00
 3.477760483410984094e+00 3.447363763317795474e+03 1.879457689017898447e+00
 3.486035830180650663e+00 3.455858148441197045e+03 1.879966721026575138e+00
 3.494311141030804535e+00 3.464139349118250266e+03 1.879037752654501459e+00
 3.502586415876177917e+00 3.469234192911394985e+03 1.877968194475443831e+00
 3.510861654631503903e+00 3.474425733643868170e+03 1.878418271832559716e+00
 3.519136857211515590e+00 3.486366008779344156e+03 1.877833003411520485e+00
 3.527412023530947849e+00 3.488472819279802934e+03 1.876621684696083259e+00
 3.535687153504532443e+00 3.493838286854261696e+03 1.875934979804074976e+00
 3.543962247047006020e+00 3.493861924829978307e+03 1.867962055794362364e+00
 3.552237304073103008e+00 3.493684673387008388e+03 1.866284525728432842e+00
 3.560512324497557834e+00 3.496468770757579023e+03 1.858593191852794924e+00
 3.568787308235106703e+00 3.494263341038785256e+03 1.854517611641520070e+00
 3.577062255200485374e+00 3.488408608924892178e+03 1.847855125201686599e+00
 3.585337165308430052e+00 3.485507304973050850e+03 1.842022470061716266e+00
 3.593612038473678272e+00 3.482033625321877935e+03 1.841664693919151885e+00
 3.601886874610966238e+00 3.476899142000452684e+03 1.838181365047270921e+00
 3.610161673635032376e+00 3.470272951916672810e+03 1.835314543303839141e+00
 3.618436435460614220e+00 3.460248966476907754e+03 1.831440208641963219e+00
 3.626711160002449308e+00 3.451168624270046621e+03 1.826547462341622241e+00
 3.634985847175277396e+00 3.437225194808473589e+03 1.822523597683718632e+00
 3.643260496893836464e+00 3.428326442606277396e+03 1.817147221250870803e+00
 3.651535109072867158e+00 3.418956262266804970e+03 1.812426997952446106e+00
 3.659809683627108345e+00 3.404365904157744808e+03 1.812642004895928860e+00
 3.668084220471299783e+00 3.391258497125070789e+03 1.807024866199665292e+00
 3.676358719520183893e+00 3.373536223612683443e+03 1.800672327562416353e+00
 3.684633180688500431e+00 3.361037485924254270e+03 1.797063686081296296e+00
 3.692907603890991375e+00 3.345889048165888198e+03 1.794194968370273813e+00
 3.701181989042396925e+00 3.331496643876310827e+03 1.789955248309059943e+00
 3.709456336057461723e+00 3.315649875817810425e+03 1.785746746052363720e+00
 3.717730644850926414e+00 3.300084235299173997e+03 1.782568361881882613e+00
 3.726004915337534307e+00 3.282371753134012579e+03 1.776549094651139082e+00
 3.734279147432029600e+00 3.266817337208938625e+03 1.771536475141991529e+00
 3.742553341049154714e+00 3.248278785650389636e+03 1.768627878441027645e+00
 3.750827496103654735e+00 3.233714403307461907e+03 1.760003701918859242e+00
 3.759101612510273860e+00 3.216598861275411309e+03 1.757867451034684780e+00
 3.767375690183757619e+00 3.200944462353792005e+03 1.751535146166271151e+00
 3.775649729038848879e+00 3.186425220927347709e+03 1.748186645660592120e+00
 3.783923728990297164e+00 3.172885673045749627e+03 1.745881988814572461e+00
 3.792197689952846673e+00 3.157277904252360713e+03 1.737986173148496682e+00
 3.800471611841242492e+00 3.142644232619742525e+03 1.733953798073322172e+00
 3.808745494570235035e+00 3.128030631547609119e+03 1.732561321906592955e+00
 3.817019338054568944e+00 3.114131064859629987e+03 1.727878805050927058e+00
 3.825293142208991970e+00 3.100256229202872873e+03 1.721705644966642357e+00
 3.833566906948252750e+00 3.089057332409534865e+03 1.719363990481194371e+00
 3.841840632187101257e+00 3.072318929351276438e+03 1.712907394185132715e+00
 3.850114317840284350e+00 3.058909367336771084e+03 1.709420290932544217e+00
 3.858387963822552447e+00 3.045634772893499303e+03 1.704740464255745991e+00
 3.866661570048655516e+00 3.031468356802111430e+03 1.699909645723646889e+00
 3.874935136433343974e+00 3.023782504714715742e+03 1.698867052418453261e+00
 3.883208662891366458e+00 3.012192040593568890e+03 1.693538145487137436e+00
 3.891482149337476493e+00 2.998469991197779564e+03 1.690481274498718545e+00
 3.899755595686423604e+00 2.993253852173442283e+03 1.688557698791400163e+00
 3.908029001852960427e+00 2.978722841292526482e+03 1.680955113709837301e+00
 3.916302367751839153e+00 2.968337398224314711e+03 1.680464913168341790e+00
 3.924575693297812862e+00 2.960268168577096731e+03 1.675839205009111543e+00
 3.932848978405633300e+00 2.951890762942737638e+03 1.674360015945022928e+00
 3.941122222990056212e+00 2.942584317691267188e+03 1.671123490662130173e+00
 3.949395426965832900e+00 2.937187693683475572e+03 1.701635672443885694e+00
 3.957668590247719997e+00 2.930363798983575634e+03 1.727613112801639872e+00
 3.965941712750470582e+00 2.925585291219918872e+03 1.744172345729376516e+00
 3.974214794388840843e+00 2.917420761492916881e+03 1.760194032934447428e+00
 3.982487835077585636e+00 2.912936740946357531e+03 1.770870851457981177e+00
 3.990760834731461593e+00 2.909735473814795114e+03 1.782171059913918887e+00
 3.999033793265224901e+00 2.900260001650915910e+03 1.794201165852350455e+00
 4.007306710593632637e+00 2.894680961010468764e+03 1.794405147750065543e+00
 4.015579586631440989e+00 2.887451389513367758e+03 1.803419299794251751e+00
 4.023852421293409698e+00 2.883419827054839516e+03 1.812847669106040671e+00
 4.032125214494294951e+00 2.878060508607680276e+03 1.816800673227304319e+00
 4.040397966148855602e+00 2.873632522025251092e+03 1.830554756314730858e+00
 4.048670676171852278e+00 2.868611462056207984e+03 1.833369506952236438e+00
 4.056943344478042945e+00 2.861651436045331593e+03 1.838768068276932066e+00
 4.065215970982186455e+00 2.855079684778217597e+03 1.845328842158676430e+00
 4.073488555599046990e+00 2.849666920373741050e+03 1.843991209746613791e+00
 4.081761098243380737e+00 2.845473474131925286e+03 1.851561852635458250e+00
 4.090033598829951877e+00 2.833520375704028993e+03 1.814233249441524753e+00
 4.098306057273520153e+00 2.826289123574340010e+03 1.776356121449382375e+00
 4.106578473488847969e+00 2.819032331483133476e+03 1.756872834291123286e+00
 4.114850847390699506e+00 2.812316110549245423e+03 1.742833457378671236e+00
 4.123123178893834506e+00 2.803621874887023296e+03 1.727071158185833122e+00
 4.131395467913019814e+00 2.795328957517244817e+03 1.717279269415714182e+00
 4.139667714363015172e+00 2.793321242365246235e+03 1.711928064174368158e+00
 4.147939918158589201e+00 2.786282987266170039e+03 1.708593950500346681e+00
 4.156212079214503419e+00 2.779385021222235991e+03 1.701914438444031230e+00
 4.164484197445522895e+00 2.773721713969019675e+03 1.695053535625973717e+00
 4.172756272766416252e+00 2.771046556659059661e+03 1.692647693310722623e+00
 4.181028305091945008e+00 2.767172111063279772e+03 1.684457688469289449e+00
 4.189300294336878672e+00 2.760214050351208243e+03 1.679006244465190756e+00
 4.197572240415984091e+00 2.756587730332846604e+03 1.675125147689807026e+00
 4.205844143244027222e+00 2.753037582247710816e+03 1.672079250625447822e+00
 4.214116002735776689e+00 2.745775606918877656e+03 1.664703078870216180e+00
 4.222387818805999338e+00 2.744750618884532742e+03 1.663500645738167361e+00
 4.230659591369465566e+00 2.740692089681792368e+03 1.660179415135761838e+00
 4.238931320340943110e+00 2.736157873102703888e+03 1.654547260256084007e+00
 4.247203005635202366e+00 2.730041342393509240e+03 1.650427986669019687e+00
 4.255474647167013735e+00 2.724914846673392731e+03 1.646210737667848312e+00
 4.263746244851145839e+00 2.720610562836781810e+03 1.644143745877062246e+00
 4.272017798602370853e+00 2.717901731193770502e+03 1.639106220390774915e+00
 4.280289308335460063e+00 2.714384579222932189e+03 1.639007579137834236e+00
 4.288560773965184758e+00 2.708838660730052197e+03 1.634302491504825872e+00
 4.296832195406317112e+00 2.704773944482128172e+03 1.630165121799015848e+00
 4.305103572573631077e+00 2.701471365082308239e+03 1.631776901622755016e+00
 4.313374905381897939e+00 2.696701434120479462e+03 1.622508376472136860e+00
 4.321646193745892539e+00 2.695518837676110707e+03 1.621756831063453141e+00
 4.329917437580389716e+00 2.690198497956914707e+03 1.620649787557326249e+00
 4.338188636800161646e+00 2.685420003897216247e+03 1.615909960125120559e+00
 4.346459791319984944e+00 2.680713276217522434e+03 1.611704186236329051e+00
 4.354730901054635339e+00 2.677369339193394353e+03 1.612163852268357900e+00
 4.363001965918887670e+00 2.674617148462262776e+03 1.607487206286341008e+00
 4.371272985827520330e+00 2.672386648555770535e+03 1.606719768269204707e+00
 4.379543960695307270e+00 2.670189251268562202e+03 1.603736907327597550e+00
 4.387814890437026882e+00 2.663598549595905297e+03 1.599255227727713446e+00
 4.396085774967457560e+00 2.661575886161504513e+03 1.598647897204658497e+00
 4.404356614201377695e+00 2.658290379838505942e+03 1.596272431140702164e+00
 4.412627408053564793e+00 2.651904180934071974e+03 1.591496079689102006e+00
 4.420898156438799020e+00 2.649501187478044358e+03 1.591154835320776284e+00
 4.429168859271858771e+00 2.646826489662071708e+03 1.589165562288459954e+00
 4.437439516467525991e+00 2.643936868501438767e+03 1.586879013921063342e+00
 4.445710127940579959e+00 2.640107065319810772e+03 1.583139796527924803e+00
 4.453980693605802621e+00 2.635700883468132815e+03 1.582052849370802372e+00
 4.462251213377974146e+00 2.631777739511242999e+03 1.578161046636767928e+00
 4.470521687171878256e+00 2.628807577448729262e+03 1.576151956572116486e+00
 4.478792114902294230e+00 2.626032425779504138e+03 1.573833199871270017e+00
 4.487062496484010232e+00 2.621636657577939786e+03 1.572839972539981757e+00
 4.495332831831804654e+00 2.616415418513803161e+03 1.567809409926125719e+00
 4.503603120860464770e+00 2.615103150858138179e+03 1.568706246558650985e+00
 4.511873363484772526e+00 2.612858334318394100e+03 1.564219595236510330e+00
 4.520143559619514306e+00 2.610499670998397960e+03 1.563833792538487089e+00
 4.528413709179474722e+00 2.605022721573968283e+03 1.561918099691028683e+00
 4.536683812079441047e+00 2.602005677469095190e+03 1.557190017358348610e+00
 4.544953868234197003e+00 2.599740515992458313e+03 1.556376098647178852e+00
 4.553223877558529864e+00 2.594799960489136538e+03 1.555893514306678105e+00
 4.561493839967229569e+00 2.592926321676683528e+03 1.551221636280383231e+00
 4.569763755375081615e+00 2.588765468508107915e+03 1.550111387112798944e+00
 4.578033623696874166e+00 2.583353907478264773e+03 1.548086284399840196e+00
 4.586303444847396271e+00 2.580903776015343738e+03 1.545069257745218749e+00
 4.594573218741436982e+00 2.579437931692081293e+03 1.544317989597576712e+00
 4.602842945293786237e+00 2.575701307027160510e+03 1.543243609633662583e+00
 4.611112624419234862e+00 2.571920260585255619e+03 1.537497088885711127e+00
 4.619382256032572798e+00 2.568524123705193688e+03 1.538294239334379920e+00
 4.627651840048589982e+00 2.566074363929543779e+03 1.535704644213112591e+00
 4.635921376382079018e+00 2.561980009350455930e+03 1.531885368307762008e+00
 4.644190864947832509e+00 2.558956613828306672e+03 1.533089034414753637e+00
 4.652460305660643947e+00 2.557431125473514840e+03 1.529518184461380104e+00
 4.660729698435305046e+00 2.554972635054872626e+03 1.527996806143290920e+00
 4.668999043186608411e+00 2.549707298075495601e+03 1.526072933906122531e+00
 4.677268339829351085e+00 2.545250235656921632e+03 1.523434534947624819e+00
 4.685537588278325671e+00 2.543517395557520103e+03 1.521442558789611876e+00
 4.693806788448326550e+00 2.542503036780630737e+03 1.519627277782061636e+00
 4.702075940254151654e+00 2.539490587752228294e+03 1.519201149665842854e+00
 4.710345043610593585e+00 2.536518432019733154e+03 1.516632918266231256e+00
 4.718614098432452941e+00 2.533145706313624942e+03 1.514166076857200283e+00
 4.726883104634524102e+00 2.529472136718176444e+03 1.513367411714406474e+00
 4.735152062131605000e+00 2.526386411537068398e+03 1.510436705695339388e+00
 4.743420970838495343e+00 2.521660750178703893e+03 1.507789956129050424e+00
 4.751689830669991288e+00 2.518752710350699999e+03 1.506495918496812081e+00
 4.759958641540894320e+00 2.516529396751279364e+03 1.504475874098173405e+00
 4.768227403366002370e+00 2.514944488759861997e+03 1.502356085081313131e+00
 4.776496116060116037e+00 2.503799930192744341e+03 1.474498277025310111e+00
 4.784764779538035917e+00 2.496682145049616338e+03 1.451326735058399375e+00
 4.793033393714563495e+00 2.493689331902574850e+03 1.457583257164985602e+00
 4.801301958504499368e+00 2.495008550605768960e+03 1.475475042988156460e+00
 4.809570473822646797e+00 2.492882284721529231e+03 1.475288767785647659e+00
 4.817838939583808155e+00 2.484864352066720130e+03 1.468473813356776070e+00
 4.826107355702786705e+00 2.472678038124527575e+03 1.466460173904386544e+00
 4.834375722094385708e+00 2.465991065268467992e+03 1.465272615096207431e+00
 4.842644038673408424e+00 2.473527879690995633e+03 1.472325006716092011e+00
 4.850912305354661669e+00 2.483058699548285858e+03 1.479826851103785312e+00
 4.859180522052949591e+00 2.479188598135430311e+03 1.477248884375876647e+00
 4.867448688683077229e+00 2.476448410596361100e+03 1.476472889160642232e+00
 4.875716805159852285e+00 2.474395846390697443e+03 1.475698517121690756e+00
 4.883984871398079797e+00 2.473176595780011667e+03 1.473148677128305328e+00
 4.892252887312568355e+00 2.467068709869217400e+03 1.471610971737215001e+00
 4.900520852818125661e+00 2.466207459030398240e+03 1.469581364066083973e+00
 4.908788767829559418e+00 2.462368279577647172e+03 1.466592036833257007e+00
 4.917056632261679106e+00 2.459168065708282029e+03 1.468568013796150984e+00
 4.925324446029293313e+00 2.458046120769425215e+03 1.465664446835737600e+00
 4.933592209047212407e+00 2.455881421187401429e+03 1.465419197113991823e+00
 4.941859921230246755e+00 2.448731114448562948e+03 1.463284355704534079e+00
 4.950127582493206724e+00 2.449472482020546067e+03 1.462307595008189187e+00
 4.958395192750905345e+00 2.448281275008709599e+03 1.464310777799178620e+00
 4.966662751918151208e+00 2.443236305864398219e+03 1.462881384918838235e+00
 4.974930259909760899e+00 2.443219393646021217e+03 1.464400277077086310e+00
 4.983197716640544783e+00 2.440009287718650739e+03 1.465852319615988497e+00
 4.991465122025318557e+00 2.437877515139623938e+03 1.465695942033801824e+00
 4.999732475978892587e+00 2.439180615688405851e+03 1.466976616828357782e+00
 5.007999778416085235e+00 2.433821514042711442e+03 1.467064008333583747e+00
 5.016267029251710419e+00 2.429719972198369305e+03 1.467084687236777318e+00
 5.024534228400582947e+00 2.427972650607804098e+03 1.467654441525553688e+00
 5.032801375777522068e+00 2.426982552318480884e+03 1.469066747157091291e+00
 5.041068471297339926e+00 2.424671016792809041e+03 1.468897725038469160e+00
 5.049335514874856656e+00 2.423540492710651961e+03 1.469331790377834901e+00
 5.057602506424888844e+00 2.421292706277183697e+03 1.471438303978141349e+00
 5.065869445862255738e+00 2.418311827595476188e+03 1.469424033056671020e+00
 5.074136333101776586e+00 2.417941148357888324e+03 1.472148359670797380e+00
 5.082403168058268861e+00 2.414126093340091757e+03 1.471563679645862655e+00
 5.090669950646555364e+00 2.409347973962011110e+03 1.470642690379487361e+00
 5.098936680781452679e+00 2.406705451255694243e+03 1.471198530094045331e+00
 5.107203358377787161e+00 2.408132532353431543e+03 1.473042870216966227e+00
 5.115469983350374505e+00 2.405916236176461553e+03 1.472240505034241753e+00
 5.123736555614041954e+00 2.400241507281149097e+03 1.472452863236996201e+00
 5.132003075083609644e+00 2.399712809248434041e+03 1.471626183092550111e+00
 5.140269541673899489e+00 2.398749928659956822e+03 1.472785389826059221e+00
 5.148535955299738731e+00 2.396272173479711455e+03 1.473399161440877236e+00
 5.156802315875949283e+00 2.392490831639273438e+03 1.473864417009568051e+00
 5.165068623317356611e+00 2.388577692554018995e+03 1.470573805641785414e+00
 5.173334877538784404e+00 2.387304205680256473e+03 1.474065527246203100e+00
 5.181601078455062570e+00 2.383810317541829590e+03 1.472525821729643303e+00
 5.189867225981013021e+00 2.383298593931448522e+03 1.472325911827078615e+00
 5.198133320031466553e+00 2.383555936513095730e+03 1.475764949928345615e+00
 5.206399360521248632e+00 2.379097218202128261e+03 1.472702936592096945e+00
 5.214665347365187387e+00 2.376384166187623123e+03 1.471150673575046364e+00
 5.222931280478113614e+00 2.373355886704173372e+03 1.471763673762356062e+00
 5.231197159774853667e+00 2.370769782882016443e+03 1.468576094444391522e+00
 5.239462985170238341e+00 2.367944272364693461e+03 1.467533831153316370e+00
 5.247728756579099318e+00 2.363799345746359450e+03 1.465416094337962383e+00
 5.255994473916265619e+00 2.361010246458944493e+03 1.462352616059541699e+00
 5.264260137096570702e+00 2.358937252535943117e+03 1.459605025346465412e+00
 5.272525746034846250e+00 2.357788169990841652e+03 1.457769095075370780e+00
 5.280791300645923059e+00 2.353784453438600394e+03 1.453463747835236575e+00
 5.289056800844635475e+00 2.353122350151558749e+03 1.450333444024538121e+00
 5.297322246545815183e+00 2.347823810939705709e+03 1.448012182935191738e+00
 5.305587637664300971e+00 2.345123580359027528e+03 1.443999133449098249e+00
 5.313852974114924521e+00 2.345984692453429943e+03 1.442821720511241246e+00
 5.322118255812521070e+00 2.342676045985982455e+03 1.443125118853622046e+00
 5.330383482671926743e+00 2.341017653767181855e+03 1.441293503235478779e+00
 5.338648654607981214e+00 2.337364770008888627e+03 1.442249748969540946e+00
 5.346913771535517057e+00 2.334431732553081929e+03 1.441264401282255747e+00
 5.355178833369373947e+00 2.332186191762308226e+03 1.441413001302114250e+00
 5.363443840024389786e+00 2.328869677226385647e+03 1.441712869461454050e+00
 5.371708791415403361e+00 2.327546729381628666e+03 1.440098852943296093e+00
 5.379973687457253462e+00 2.325648330200864621e+03 1.441560000588322454e+00
 5.388238528064782429e+00 2.322485269975141819e+03 1.440418473214957418e+00
 5.396503313152829051e+00 2.321476057884314287e+03 1.441555007466523541e+00
 5.404768042636234782e+00 2.320485338851811775e+03 1.440602736676759754e+00
 5.413032716429840185e+00 2.314082127106381904e+03 1.439056227292436096e+00
 5.421297334448488492e+00 2.313795301882622425e+03 1.440942952273345012e+00
 5.429561896607022042e+00 2.312985910030139621e+03 1.439319236888948250e+00
 5.437826402820284066e+00 2.311702531367971460e+03 1.441585364007181624e+00
 5.446090853003120458e+00 2.308724490647337916e+03 1.439564992935020493e+00
 5.454355247070373558e+00 2.304892036923353771e+03 1.439177285939292172e+00
 5.462619584936888373e+00 2.303370698587750667e+03 1.439956333367578889e+00
 5.470883866517512573e+00 2.301120276370937063e+03 1.439293223017015455e+00
 5.479148091727091163e+00 2.297208995639279237e+03 1.436574938398407886e+00
 5.487412260480470927e+00 2.294019556451463359e+03 1.439055947110302602e+00
 5.495676372692498646e+00 2.295549735344731744e+03 1.437428739781020592e+00
 5.503940428278023766e+00 2.294029187090632604e+03 1.439018373174182353e+00
 5.512204427151893071e+00 2.291058916854695781e+03 1.438167603176228271e+00
 5.520468369228957783e+00 2.287750886603860636e+03 1.438387473115662951e+00
 5.528732254424065573e+00 2.286693794673647517e+03 1.437364713533735738e+00
 5.536996082652068552e+00 2.285639092679904479e+03 1.437845352761847995e+00
 5.545259853827817942e+00 2.280781072562761892e+03 1.436438316001830362e+00
 5.553523567866164079e+00 2.278174608024853114e+03 1.436917829831728000e+00
 5.561787224681959074e+00 2.277694359093473395e+03 1.436562948977907261e+00
 5.570050824190056815e+00 2.273606816204842744e+03 1.435598563678698536e+00
 5.578314366305307637e+00 2.268650936809895029e+03 1.435253303507000533e+00
 5.586577850942568979e+00 2.270920105074300864e+03 1.436215452919043178e+00
 5.594841278016693842e+00 2.267065960401727807e+03 1.435240637988405954e+00
 5.603104647442536113e+00 2.266618155452311385e+03 1.435221144838864538e+00
 5.611367959134954120e+00 2.264824978085299790e+03 1.434653313137790542e+00
 5.619631213008801751e+00 2.261986677182007952e+03 1.435099648740802536e+00
 5.627894408978936447e+00 2.259115618403585358e+03 1.433943822340386198e+00
 5.636157546960216536e+00 2.255999370677439856e+03 1.434015356136792985e+00
 5.644420626867500346e+00 2.252553219015750528e+03 1.432470897046982605e+00
 5.652683648615644429e+00 2.250479760057736712e+03 1.433199305319809103e+00
 5.660946612119510668e+00 2.250443360109520654e+03 1.432330044260789803e+00
 5.669209517293956502e+00 2.247538439095359990e+03 1.433243871135103209e+00
 5.677472364053842924e+00 2.245337596031945395e+03 1.431356881687835703e+00
 5.685735152314031815e+00 2.244630382622799061e+03 1.432889418495766565e+00
 5.693997881989383281e+00 2.242259467688948916e+03 1.437111664511297793e+00
 5.702260552994761866e+00 2.243857206881970797e+03 1.477140660472101130e+00
 5.710523165245029453e+00 2.242785111978560963e+03 1.504852720682798406e+00
 5.718785718655049699e+00 2.240935554608697657e+03 1.521910792242394672e+00
 5.727048213139686261e+00 2.242251334557405698e+03 1.541547138379135706e+00
 5.735310648613802798e+00 2.240111047881954164e+03 1.553729498016981347e+00
 5.743573024992266518e+00 2.235015312381994590e+03 1.561455446131949198e+00
 5.751835342189942857e+00 2.235215331450280701e+03 1.575224586737155485e+00
 5.760097600121698136e+00 2.234339445014880312e+03 1.587634457744971472e+00
 5.768359798702397789e+00 2.232797984449181058e+03 1.600171286864036757e+00
 5.776621937846913468e+00 2.231858515040508792e+03 1.611191780400825557e+00
 5.784884017470109718e+00 2.229843204383797001e+03 1.622480310334158959e+00
 5.793146037486856414e+00 2.230141209942199112e+03 1.635184959205281618e+00
 5.801407997812024320e+00 2.228650786350994622e+03 1.644214996705617438e+00
 5.809669898360482421e+00 2.226474026855943521e+03 1.655186847439919173e+00
 5.817931739047102369e+00 2.225151120463642201e+03 1.667373896870335992e+00
 5.826193519786754038e+00 2.224603230185324719e+03 1.675365321854371592e+00
 5.834455240494312633e+00 2.221202155691011740e+03 1.670268788211324074e+00
 5.842716901084647141e+00 2.216900163498287384e+03 1.621718161185359719e+00
 5.850978501472633653e+00 2.211456673966053586e+03 1.597206167112953823e+00
 5.859240041573143820e+00 2.209075263276475653e+03 1.581814843761759182e+00
 5.867501521301053735e+00 2.207345704916913746e+03 1.572040967586261440e+00
 5.875762940571238602e+00 2.201939941562561216e+03 1.565357312386000954e+00
 5.884024299298572735e+00 2.200447713933072919e+03 1.560599445629476278e+00
 5.892285597397934005e+00 2.197733867287161502e+03 1.555232092577355729e+00
 5.900546834784197614e+00 2.196148549271739284e+03 1.548452673888282893e+00
 5.908808011372244096e+00 2.192436079341581262e+03 1.542309811435238265e+00
 5.917069127076950430e+00 2.188532657295901572e+03 1.540414040507051441e+00
 5.925330181813192709e+00 2.186934354597503443e+03 1.533113368485429451e+00
 5.933591175495853243e+00 2.184952264942371130e+03 1.530107617848877277e+00
 5.941852108039813452e+00 2.182664115381521697e+03 1.528487533509060192e+00
 5.950112979359951204e+00 2.178475313959077084e+03 1.524472653238625020e+00
 5.958373789371147922e+00 2.176859192811668890e+03 1.520666010401252821e+00
 5.966634537988290354e+00 2.173828456695832301e+03 1.519002087421335689e+00
 5.974895225126252818e+00 2.170852527468746302e+03 1.515550929439925643e+00
 5.983155850699928280e+00 2.169552334349103148e+03 1.512598410461433174e+00
 5.991416414624192832e+00 2.165298276820684805e+03 1.510368293141283180e+00
 5.999676916813934113e+00 2.163808207364966165e+03 1.507270289571347455e+00
 6.007937357184037097e+00 2.163485578656138387e+03 1.504347110450181102e+00
 6.016197735649389422e+00 2.160501041277649165e+03 1.503259987607182158e+00
 6.024458052124873397e+00 2.157010814538761224e+03 1.502831414311111669e+00
 6.032718306525381102e+00 2.156113550158835551e+03 1.498552371859475763e+00
 6.040978498765797511e+00 2.152103361486720132e+03 1.497255601052138507e+00
 6.049238628761010261e+00 2.151582833580244824e+03 1.497074519959763039e+00
 6.057498696425910545e+00 2.151239641515145649e+03 1.495301077621153496e+00
 6.065758701675386000e+00 2.148242073682575210e+03 1.492176335739578086e+00
 6.074018644424329594e+00 2.144502246687527077e+03 1.492569918679792051e+00
 6.082278524587628965e+00 2.144064869599090343e+03 1.491304627487838985e+00
 6.090538342080177969e+00 2.141504811683675143e+03 1.486995707130295941e+00
 6.098798096816868686e+00 2.138512891251081328e+03 1.488552490084721347e+00
 6.107057788712593194e+00 2.137767504473099507e+03 1.485697604386926551e+00
 6.115317417682245349e+00 2.134857661121898218e+03 1.484255162634505520e+00
 6.123576983640720783e+00 2.132056352069472723e+03 1.482946327860373836e+00
 6.131836486502913353e+00 2.130024675383685462e+03 1.482239595701441814e+00
 6.140095926183716024e+00 2.126988141675034967e+03 1.479800076468083203e+00
 6.148355302598028871e+00 2.128344300924882646e+03 1.479938498129335755e+00
 6.156614615660746637e+00 2.124439436034217124e+03 1.479579795502621309e+00
 6.164873865286767618e+00 2.122893484215515400e+03 1.476713088301961685e+00
 6.173133051390989223e+00 2.120695796529827476e+03 1.476232875659436283e+00
 6.181392173888310637e+00 2.120221850533469933e+03 1.476874385580399851e+00
 6.189651232693631044e+00 2.117337698789706337e+03 1.472041326151240614e+00
 6.197910227721851406e+00 2.114371028018200832e+03 1.469225236416223712e+00
 6.206169158887870907e+00 2.113152927690066917e+03 1.467772109839570627e+00
 6.214428026106592284e+00 2.111369839428828527e+03 1.465193470459031033e+00
 6.222686829292916499e+00 2.109342183735886465e+03 1.461613196810862325e+00
 6.230945568361746290e+00 2.109513673119468876e+03 1.459549225462977384e+00
 6.239204243227987945e+00 2.105319472369639243e+03 1.457959519973074602e+00
 6.247462853806540650e+00 2.103527034032887968e+03 1.454999331963758413e+00
 6.255721400012311584e+00 2.103849394354904234e+03 1.453831114525214518e+00
 6.263979881760207036e+00 2.099073405208144322e+03 1.450677806953818205e+00
 6.272238298965132408e+00 2.096040012318820573e+03 1.447454108368601666e+00
 6.280496651541993991e+00 2.094970171598475190e+03 1.446091251621140827e+00
 6.288754939405697186e+00 2.094319687008328856e+03 1.448172414321938550e+00
 6.297013162471155390e+00 2.090663128908377075e+03 1.443658602183854667e+00
 6.305271320653272227e+00 2.087821454649774751e+03 1.443666910990021979e+00
 6.313529413866957540e+00 2.086778522362857075e+03 1.443306287502294394e+00
 6.321787442027124726e+00 2.086246704434987350e+03 1.443617823382888687e+00
 6.330045405048680962e+00 2.084564125321981010e+03 1.441192171052867677e+00
 6.338303302846540532e+00 2.082008097067739527e+03 1.441026417033859364e+00
 6.346561135335611503e+00 2.080628166574495026e+03 1.441537591701698817e+00
 6.354818902430810823e+00 2.078741378662676652e+03 1.438550989153634330e+00
 6.363076604047049223e+00 2.076161726295650169e+03 1.438105578229871950e+00
 6.371334240099242763e+00 2.075447879548958099e+03 1.438082175442648269e+00
 6.379591810502303950e+00 2.073489800322219253e+03 1.435884229421198643e+00
 6.387849315171150621e+00 2.071463992792465888e+03 1.435584156608417539e+00
 6.396106754020697061e+00 2.067879414650696617e+03 1.436262933732743274e+00
 6.404364126965859327e+00 2.067342617110757601e+03 1.434422937485222649e+00
 6.412621433921558811e+00 2.067495694643394017e+03 1.434163836607956988e+00
 6.420878674802708908e+00 2.063825478410400592e+03 1.433380573678847192e+00
 6.429135849524230117e+00 2.063465903760059973e+03 1.433434088923896343e+00
 6.437392958001042054e+00 2.060837236358559949e+03 1.431763560608702912e+00
 6.445650000148066994e+00 2.059921227912521772e+03 1.431756903158677430e+00
 6.453906975880223662e+00 2.056994693761194412e+03 1.431674775794751442e+00
 6.462163885112431672e+00 2.053466463963402020e+03 1.428224468836708061e+00
 6.470420727759617741e+00 2.052502132274389169e+03 1.429131797598035325e+00
 6.478677503736701482e+00 2.051471220475320479e+03 1.428595160999098113e+00
 6.486934212958606949e+00 2.049849226582769461e+03 1.427985897003905436e+00
 6.495190855340259972e+00 2.048501672444758697e+03 1.427294613873995477e+00
 6.503447430796584605e+00 2.046203876374401489e+03 1.426095079203335336e+00
 6.511703939242505790e+00 2.043704582900272953e+03 1.425844019962088982e+00
 6.519960380592949356e+00 2.042859024074615263e+03 1.423691402150489616e+00
 6.528216754762845575e+00 2.041727273796930376e+03 1.424667003941175736e+00
 6.536473061667119389e+00 2.038217516938012523e+03 1.423220917780497974e+00
 6.544729301220701956e+00 2.035658969099914657e+03 1.421488842564895716e+00
 6.552985473338516442e+00 2.035583088426017866e+03 1.421903481651070056e+00
 6.561241577935499336e+00 2.034166816834435167e+03 1.422336140405902283e+00
 6.569497614926577356e+00 2.029966149571927417e+03 1.420778469751289297e+00
 6.577753584226685213e+00 2.029005737776365322e+03 1.419252036118076488e+00
 6.586009485750750514e+00 2.028292851130432609e+03 1.419178809171993461e+00
 6.594265319413707971e+00 2.026270929411178486e+03 1.420191032933532549e+00
 6.602521085130489631e+00 2.025337002112669552e+03 1.418672711010304122e+00
 6.610776782816031982e+00 2.024544317697094584e+03 1.418042817824459068e+00
 6.619032412385268849e+00 2.021518313342111014e+03 1.415972192884163317e+00
 6.627287973753134942e+00 2.019736057844519564e+03 1.414427541428198154e+00
 6.635543466834564974e+00 2.018292756799452945e+03 1.411695254746212047e+00
 6.643798891544499874e+00 2.014667599389715178e+03 1.408169219440770226e+00
 6.652054247797872577e+00 2.012415932362447620e+03 1.405869447768139713e+00
 6.660309535509624013e+00 2.012041337392175592e+03 1.402085590580792296e+00
 6.668564754594691557e+00 2.009154244696544083e+03 1.400950980405465840e+00
 6.676819904968016139e+00 2.009153984312544253e+03 1.399371198357302504e+00
 6.685074986544538689e+00 2.006856378217939437e+03 1.397762174524336931e+00
 6.693329999239199246e+00 2.005046939647014824e+03 1.395900891878971262e+00
 6.701584942966939629e+00 2.002063856996353707e+03 1.393593008732106453e+00
 6.709839817642700766e+00 2.000944563665631676e+03 1.391517117186451546e+00
 6.718094623181430691e+00 1.998903548082908173e+03 1.387579968594556012e+00
 6.726349359498069447e+00 1.995947199031495757e+03 1.386553483696594036e+00
 6.734604026507560626e+00 1.997415013917138822e+03 1.386520774961745417e+00
 6.742858624124851374e+00 1.993603282388432262e+03 1.384614264172169928e+00
 6.751113152264888839e+00 1.991944891474494398e+03 1.384620909844749503e+00
 6.759367610842618390e+00 1.991634985209093202e+03 1.383390229912461855e+00
 6.767621999772987174e+00 1.988548887255435147e+03 1.383356896083565379e+00
 6.775876318970943224e+00 1.987505438813733463e+03 1.381623431902728072e+00
 6.784130568351436352e+00 1.986551216378620893e+03 1.381250270098411503e+00
 6.792384747829416369e+00 1.983406566027764256e+03 1.381027268257461804e+00
 6.800638857319833974e+00 1.982928032719368275e+03 1.380404443573850504e+00
 6.808892896737638978e+00 1.983617327490131402e+03 1.381017645573763497e+00
 6.817146865997782967e+00 1.982945767240554915e+03 1.381448129277985881e+00
 6.825400765015219307e+00 1.979736869616876220e+03 1.379790552445632867e+00
 6.833654593704901359e+00 1.978089318049094118e+03 1.380378301697342547e+00
 6.841908351981782488e+00 1.975506333575146527e+03 1.378191268815485149e+00
 6.850162039760818722e+00 1.975616086322046385e+03 1.378188143417282241e+00
 6.858415656956963424e+00 1.973134053197773255e+03 1.378565247383418013e+00
 6.866669203485176176e+00 1.973944881355972257e+03 1.378723980180099895e+00
 6.874922679260408565e+00 1.970809314593531553e+03 1.377421268964559964e+00
 6.883176084197621947e+00 1.970660757375703270e+03 1.377908352391933544e+00
 6.891429418211774127e+00 1.965826459507246682e+03 1.375968674884892939e+00
 6.899682681217825575e+00 1.964935391608732516e+03 1.376319717900520878e+00
 6.907935873130730542e+00 1.962364333877667150e+03 1.373723261560874986e+00
 6.916188993865456602e+00 1.961575484959937512e+03 1.373984004883510135e+00
 6.924442043336959784e+00 1.961644156067423637e+03 1.373801483825826564e+00
 6.932695021460205886e+00 1.957643779060663519e+03 1.372854089472747230e+00
 6.940947928150156265e+00 1.955837564552031381e+03 1.372303190182983412e+00
 6.949200763321772278e+00 1.958207375805323409e+03 1.374375516846161771e+00
 6.957453526890020612e+00 1.959343710425731388e+03 1.373615339613857067e+00
 6.965706218769864400e+00 1.956304036297053926e+03 1.372549430752398658e+00
 6.973958838876272104e+00 1.954760073160558704e+03 1.372296807930563967e+00
 6.982211387124209523e+00 1.952616575002230547e+03 1.371461627530212724e+00
 6.990463863428638902e+00 1.952051727397701143e+03 1.372337742783430903e+00
 6.998716267704534921e+00 1.947399531756299666e+03 1.371032194281755601e+00
 7.006968599866861602e+00 1.946009520595187496e+03 1.369881820140899542e+00
 7.015220859830590072e+00 1.945616456826385274e+03 1.369124726811336679e+00
 7.023473047510691458e+00 1.944263035638473184e+03 1.370341065359575339e+00
 7.031725162822137776e+00 1.943665938457315860e+03 1.367902973476038619e+00
 7.039977205679895711e+00 1.943545927476018278e+03 1.368643283349971318e+00
 7.048229175998940832e+00 1.940502539970424550e+03 1.367983368592922133e+00
 7.056481073694244266e+00 1.938608776339930273e+03 1.367068516329298378e+00
 7.064732898680784245e+00 1.937409055298433941e+03 1.366933732519743705e+00
 7.072984650873531010e+00 1.934956970270585543e+03 1.366603971151446828e+00
 7.081236330187461903e+00 1.934783921204014632e+03 1.366460431398396569e+00
 7.089487936537552493e+00 1.933526709772221466e+03 1.365728111164766556e+00
 7.097739469838779236e+00 1.932343883502389417e+03 1.365886892513479722e+00
 7.105990930006122142e+00 1.931592915687939239e+03 1.364551443407042486e+00
 7.114242316954555889e+00 1.928296145412664600e+03 1.364867422036626143e+00
 7.122493630599062264e+00 1.926942508145587453e+03 1.361759713842453090e+00
 7.130744870854620387e+00 1.924503646191079724e+03 1.361963022052061767e+00
 7.138996037636211156e+00 1.920903315869990820e+03 1.361755309245736401e+00
 7.147247130858814579e+00 1.920032906538840052e+03 1.360175310286775963e+00
 7.155498150437414218e+00 1.917761448083712594e+03 1.360394978507202257e+00
 7.163749096286993634e+00 1.915909373379633507e+03 1.359819938467787592e+00
 7.171999968322535501e+00 1.915642681586673461e+03 1.359725292697065102e+00
 7.180250766459023382e+00 1.915614754844749996e+03 1.360741783285969841e+00
 7.188501490611443501e+00 1.912672022690142057e+03 1.359203624253873199e+00
 7.196752140694782973e+00 1.910387682852689068e+03 1.358391720655617974e+00
 7.205002716624025361e+00 1.908894743432907489e+03 1.357942814603506188e+00
 7.213253218314160442e+00 1.905861496596378174e+03 1.356331319856731499e+00
 7.221503645680177996e+00 1.903960359566091711e+03 1.354103433600082340e+00
 7.229753998637063361e+00 1.901227083748471841e+03 1.354967375551512365e+00
 7.238004277099808981e+00 1.898969078704901449e+03 1.353672412594676411e+00
 7.246254480983402857e+00 1.899938043599002867e+03 1.354344491347021506e+00
 7.254504610202840986e+00 1.896516025202792434e+03 1.353450975992708916e+00
 7.262754664673108707e+00 1.894068472803012583e+03 1.352373259050660526e+00
 7.271004644309205567e+00 1.893079391356196538e+03 1.352918542414397685e+00
 7.279254549026121346e+00 1.893050025410142780e+03 1.353521640559198103e+00
 7.287504378738851152e+00 1.889689370656413075e+03 1.351094420452277456e+00
 7.295754133362390093e+00 1.888694099338351180e+03 1.350738572911591273e+00
 7.304003812811734164e+00 1.886369671277539965e+03 1.349866386825783415e+00
 7.312253417001880251e+00 1.886424539425547209e+03 1.350252896003462100e+00
 7.320502945847825238e+00 1.883487646132404734e+03 1.347818073581987131e+00
 7.328752399264569561e+00 1.882252655526863691e+03 1.348677543391819889e+00
 7.337001777167110106e+00 1.879232051442218335e+03 1.347228831174107633e+00
 7.345251079470447308e+00 1.877624442574045133e+03 1.347466095526002494e+00
 7.353500306089581606e+00 1.875239600884851143e+03 1.346040750251648266e+00
 7.361749456939515213e+00 1.873346026569246760e+03 1.345848692637928057e+00
 7.369998531935250341e+00 1.873205714413536953e+03 1.345879624503562022e+00
 7.378247530991788317e+00 1.871654150869439036e+03 1.344631531699758131e+00
 7.386496454024133129e+00 1.868573320182028965e+03 1.344295678257664051e+00
 7.394745300947291433e+00 1.867822513960293008e+03 1.344675964724129980e+00
 7.402994071676267218e+00 1.865822025414700420e+03 1.344118336875246955e+00
 7.411242766126065362e+00 1.864020166377410760e+03 1.340753727218882974e+00
 7.419491384211693408e+00 1.863313138727325395e+03 1.349971308265474290e+00
 7.427739925848160674e+00 1.864077238563901346e+03 1.395238291764147487e+00
 7.435988390950475591e+00 1.862186434282702066e+03 1.421266633664379109e+00
 7.444236779433643036e+00 1.862927851045619491e+03 1.443188362681834480e+00
 7.452485091212677659e+00 1.859663532558221050e+03 1.456291595716885823e+00
 7.460733326202588778e+00 1.858224240637825460e+03 1.468713794343022183e+00
 7.468981484318389263e+00 1.859881026411389257e+03 1.484579712784059424e+00
 7.477229565475089323e+00 1.855749776409245897e+03 1.496965393848827874e+00
 7.485477569587701829e+00 1.855066694925039656e+03 1.510315669442962028e+00
 7.493725496571243205e+00 1.855668149768416470e+03 1.521533298570377557e+00
 7.501973346340727211e+00 1.851653424499120092e+03 1.532424202765493515e+00
 7.510221118811169383e+00 1.852459403856957351e+03 1.545800566783935182e+00
 7.518468813897585257e+00 1.852387893919639964e+03 1.558385357207796806e+00
 7.526716431514993033e+00 1.851550150445684949e+03 1.569260045753915422e+00
 7.534963971578410913e+00 1.848282975200328337e+03 1.583416806673004995e+00
 7.543211434002856208e+00 1.845767755064025778e+03 1.595170963127376718e+00
 7.551458818703349785e+00 1.843662237276064843e+03 1.606137000507822821e+00
 7.559706125594912507e+00 1.842182401235686939e+03 1.619359040740070199e+00
 7.567953354592562576e+00 1.841287338100518809e+03 1.632455687084563678e+00
 7.576200505611324409e+00 1.842435540422751274e+03 1.645137970798805860e+00
 7.584447578566222425e+00 1.841632728414764415e+03 1.656146364729040643e+00
 7.592694573372278377e+00 1.838771050285301044e+03 1.667873463877206364e+00
 7.600941489944513130e+00 1.837216328917341798e+03 1.679601602024643814e+00
 7.609188328197959095e+00 1.834335802754843144e+03 1.692144629812322387e+00
 7.617435088047636249e+00 1.832856932231155497e+03 1.703470541448449005e+00
 7.625681769408572563e+00 1.832800001824961555e+03 1.718041277391282540e+00
 7.633928372195798673e+00 1.830080099954372372e+03 1.729521146321604919e+00
 7.642174896324338995e+00 1.829407239542554862e+03 1.740710803885009428e+00
 7.650421341709225942e+00 1.827650349184703600e+03 1.752529211576327350e+00
 7.658667708265489260e+00 1.825526401231251612e+03 1.764813983459601499e+00
 7.666913995908159585e+00 1.825856683012411622e+03 1.778008565885237591e+00
 7.675160204552264887e+00 1.821108722810510244e+03 1.791960949034947514e+00
 7.683406334112842018e+00 1.819653572558525411e+03 1.802201822823749744e+00
 7.691652384504922502e+00 1.819591457998073111e+03 1.816411263593587178e+00
 7.699898355643542303e+00 1.818686171526426961e+03 1.828644710797984629e+00
 7.708144247443733832e+00 1.817062584272708364e+03 1.842926656758748560e+00
 7.716390059820534830e+00 1.816082148165378385e+03 1.854821825177521477e+00
 7.724635792688979485e+00 1.815219710564571642e+03 1.869381538999130399e+00
 7.732881445964106426e+00 1.813019890539047310e+03 1.884070270509415224e+00
 7.741127019560956946e+00 1.812488592870073717e+03 1.896249356639804429e+00
 7.749372513394563455e+00 1.810121223620542196e+03 1.910952300156202766e+00
 7.757617927379974354e+00 1.808564618844950701e+03 1.925363493953341942e+00
 7.765863261432221165e+00 1.809207576803933080e+03 1.938915255338612420e+00
 7.774108515466351399e+00 1.804299682292072930e+03 1.950521162148622256e+00
 7.782353689397406349e+00 1.804404800094029270e+03 1.966582056120905087e+00
 7.790598783140427308e+00 1.802317818220642948e+03 1.981569665782655587e+00
 7.798843796610460011e+00 1.802842588414352349e+03 1.998942836497912268e+00
 7.807088729722550191e+00 1.798062631448883849e+03 2.010828105572209701e+00
 7.815333582391739142e+00 1.795856153611832724e+03 2.028208318849742842e+00
 7.823578354533077928e+00 1.790823077358709952e+03 2.037653424694235049e+00
 7.831823046061612281e+00 1.786640925934481629e+03 2.053808219022429160e+00
 7.840067656892390602e+00 1.783266746869103827e+03 2.067640573501724699e+00
 7.848312186940460400e+00 1.775453597606599260e+03 2.083497622109617087e+00
 7.856556636120872739e+00 1.768106739718122981e+03 2.095415564423541710e+00
 7.864801004348677793e+00 1.762588398885116931e+03 2.109901278925921275e+00
 7.873045291538926627e+00 1.752818506072413356e+03 2.123748608778879277e+00
 7.881289497606673855e+00 1.748240656966946062e+03 2.132146990734386183e+00
 7.889533622466968765e+00 1.739518129566607968e+03 2.153229391813779259e+00
 7.897777666034869526e+00 1.727334119476442993e+03 2.159023860363991076e+00
 7.906021628225427200e+00 1.713831620189306705e+03 2.173042168258579210e+00
 7.914265508953699957e+00 1.701777084675504057e+03 2.186767423815394018e+00
 7.922509308134742412e+00 1.690820140249949418e+03 2.199702514967664779e+00
 7.930753025683612734e+00 1.675506931010805374e+03 2.207759493496141978e+00
 7.938996661515369091e+00 1.657712029474993869e+03 2.214399858961105583e+00
 7.947240215545071429e+00 1.644626398202522296e+03 2.234965052803152386e+00
 7.955483687687778804e+00 1.637355144854396030e+03 2.259153828619409943e+00
 7.963727077858549386e+00 1.629589823021868824e+03 2.280833652091609043e+00
 7.971970385972447559e+00 1.615477783758200985e+03 2.300973403379192206e+00
 7.980213611944536822e+00 1.613378793984529011e+03 2.333175399516232762e+00
 7.988456755689878008e+00 1.610434766662804577e+03 2.369070112263655048e+00
 7.996699817123536391e+00 1.594158783524553428e+03 2.393312626034460600e+00
 8.004942796160575469e+00 1.589609662228645675e+03 2.430064507760637760e+00
 8.013185692716065844e+00 1.576253245080959232e+03 2.457201379889321302e+00
 8.021428506705065686e+00 1.569239581277333627e+03 2.499456686442908637e+00
 8.029671238042649151e+00 1.563802369765343656e+03 2.539750385913849939e+00
 8.037913886643879735e+00 1.558683617428346679e+03 2.583661079055767029e+00
 8.046156452423831595e+00 1.544817452228312504e+03 2.623559223790991712e+00
 8.054398935297573559e+00 1.529687357718559497e+03 2.663108436403655244e+00
 8.062641335180172675e+00 1.515799645364696971e+03 2.709733653266034992e+00
 8.070883651986704876e+00 1.507506869857244737e+03 2.762341660864844339e+00
 8.079125885632242543e+00 1.492842638215513944e+03 2.807667613789222028e+00
 8.087368036031856278e+00 1.475135614848614068e+03 2.855299580637898238e+00
 8.095610103100622013e+00 1.455876204592522981e+03 2.909892331660057341e+00
 8.103852086753613904e+00 1.441074167393235484e+03 2.982535758680873617e+00
 8.112093986905911436e+00 1.425115678609553242e+03 3.052587107644263220e+00
 8.120335803472586989e+00 1.405073603065896577e+03 3.143538822609743821e+00
 8.128577536368721823e+00 1.372139529176705537e+03 3.149694429037038557e+00
 8.136819185509391872e+00 1.345849570996014108e+03 3.196119054330957443e+00
 8.145060750809676620e+00 1.322673469894828941e+03 3.252904511226641038e+00
 8.153302232184660880e+00 1.304639877770225894e+03 3.325977950808648220e+00
 8.161543629549418810e+00 1.282236206112890386e+03 3.389247480933426537e+00
 8.169784942819036999e+00 1.233623340236595368e+03 3.404426451254266794e+00
 8.178026171908598485e+00 1.205585398030700844e+03 3.443223426550356958e+00
 8.186267316733186306e+00 1.154411420104406716e+03 3.488224376787314451e+00
 8.194508377207883498e+00 1.112974081323199698e+03 3.557586496230281892e+00
 8.202749353247778430e+00 1.065139139489841227e+03 3.620691203861649665e+00
 8.210990244767955915e+00 1.015952640030862312e+03 3.702153131378214113e+00
 8.219231051683504319e+00 9.316124497524333492e+02 3.649745568278906838e+00
 8.227471773909506680e+00 8.548730928045964674e+02 3.681842717001758913e+00
 8.235712411361060248e+00 7.824286331235090302e+02 3.733741015525876339e+00
 8.243952963953249835e+00 7.118346381769244999e+02 3.816332214830414848e+00
 8.252193431601167362e+00 6.418568584765934020e+02 3.883341003621049392e+00
 8.260433814219904747e+00 5.591389360262537593e+02 3.880848031266440845e+00
 8.268674111724552134e+00 4.827113054755597545e+02 3.966093792986199240e+00
 8.276914324030206771e+00 4.148453207274303622e+02 4.224074986745964821e+00
 8.285154451051958802e+00 3.243489485690611787e+02 4.312847846697511756e+00
 8.293394492704907250e+00 2.594240354189509503e+02 5.046279420726151876e+00
 8.301634448904145813e+00 1.814705493747753451e+02 6.956446398840437695e+00
 8.309874319564773515e+00 0.000000000000000000e+00 0.000000000000000000e+00
 8.318114104601885828e+00 0.000000000000000000e+00 0.000000000000000000e+00
 8.326353803930581776e+00 0.000000000000000000e+00 0.000000000000000000e+00
 8.334593417465962162e+00 0.000000000000000000e+00 0.000000000000000000e+00
 8.342832945123126009e+00 0.000000000000000000e+00 0.000000000000000000e+00
 8.351072386817175897e+00 0.000000000000000000e+00 0.000000000000000000e+00
 8.359311742463214401e+00 0.000000000000000000e+00 0.000000000000000000e+00
 8.367551011976344100e+00 0.000000000000000000e+00 0.000000000000000000e+00
 8.375790195271665795e+00 0.000000000000000000e+00 0.000000000000000000e+00
 8.384029292264289168e+00 0.000000000000000000e+00 0.000000000000000000e+00
 8.392268302869316798e+00 0.000000000000000000e+00 0.000000000000000000e+00
 8.400507227001856592e+00 0.000000000000000000e+00 0.000000000000000000e+00
 8.408746064577018231e+00 0.000000000000000000e+00 0.000000000000000000e+00
 8.416984815509906070e+00 0.000000000000000000e+00 0.000000000000000000e+00
 8.425223479715629793e+00 0.000000000000000000e+00 0.000000000000000000e+00
 8.433462057109304411e+00 0.000000000000000000e+00 0.000000000000000000e+00
 8.441700547606037830e+00 0.000000000000000000e+00 0.000000000000000000e+00
 8.449938951120937958e+00 0.000000000000000000e+00 0.000000000000000000e+00
 8.458177267569125135e+00 0.000000000000000000e+00 0.000000000000000000e+00
 8.466415496865709045e+00 0.000000000000000000e+00 0.000000000000000000e+00
 8.474653638925804700e+00 0.000000000000000000e+00 0.000000000000000000e+00
 8.482891693664528887e+00 0.000000000000000000e+00 0.000000000000000000e+00
 8.491129660996996620e+00 0.000000000000000000e+00 0.000000000000000000e+00
 8.499367540838324686e+00 0.000000000000000000e+00 0.000000000000000000e+00
 8.507605333103635203e+00 0.000000000000000000e+00 0.000000000000000000e+00
 8.515843037708043184e+00 0.000000000000000000e+00 0.000000000000000000e+00
 8.524080654566670745e+00 0.000000000000000000e+00 0.000000000000000000e+00
 8.532318183594640004e+00 0.000000000000000000e+00 0.000000000000000000e+00
 8.540555624707069526e+00 0.000000000000000000e+00 0.000000000000000000e+00
 8.548792977819084982e+00 0.000000000000000000e+00 0.000000000000000000e+00
 8.557030242845808488e+00 0.000000000000000000e+00 0.000000000000000000e+00
 8.565267419702367491e+00 0.000000000000000000e+00 0.000000000000000000e+00
 8.573504508303882332e+00 0.000000000000000000e+00 0.000000000000000000e+00
 8.581741508565485788e+00 0.000000000000000000e+00 0.000000000000000000e+00
 8.589978420402299975e+00 0.000000000000000000e+00 0.000000000000000000e+00
 8.598215243729457669e+00 0.000000000000000000e+00 0.000000000000000000e+00
 8.606451978462082764e+00 0.000000000000000000e+00 0.000000000000000000e+00
 8.614688624515306259e+00 0.000000000000000000e+00 0.000000000000000000e+00
 8.622925181804266259e+00 0.000000000000000000e+00 0.000000000000000000e+00
 8.631161650244084882e+00 0.000000000000000000e+00 0.000000000000000000e+00
 8.639398029749903785e+00 0.000000000000000000e+00 0.000000000000000000e+00
 8.647634320236852190e+00 0.000000000000000000e+00 0.000000000000000000e+00
 8.655870521620062874e+00 0.000000000000000000e+00 0.000000000000000000e+00
 8.664106633814675718e+00 0.000000000000000000e+00 0.000000000000000000e+00
 8.672342656735823496e+00 0.000000000000000000e+00 0.000000000000000000e+00
 8.680578590298647867e+00 0.000000000000000000e+00 0.000000000000000000e+00
 8.688814434418281607e+00 0.000000000000000000e+00 0.000000000000000000e+00
 8.697050189009869925e+00 0.000000000000000000e+00 0.000000000000000000e+00
 8.705285853988547373e+00 0.000000000000000000e+00 0.000000000000000000e+00
 8.713521429269460938e+00 0.000000000000000000e+00 0.000000000000000000e+00
 8.721756914767748725e+00 0.000000000000000000e+00 0.000000000000000000e+00
 8.729992310398554167e+00 0.000000000000000000e+00 0.000000000000000000e+00
 8.738227616077020699e+00 0.000000000000000000e+00 0.000000000000000000e+00
 8.746462831718295305e+00 0.000000000000000000e+00 0.000000000000000000e+00
 8.754697957237523198e+00 0.000000000000000000e+00 0.000000000000000000e+00
 8.762932992549849587e+00 0.000000000000000000e+00 0.000000000000000000e+00
 8.771167937570423234e+00 0.000000000000000000e+00 0.000000000000000000e+00
 8.779402792214391127e+00 0.000000000000000000e+00 0.000000000000000000e+00
 