out/agbeh5_1M_00001.chi
q [nm^-1]
Intensity
   1063
 0.000000000000000000e+00 0.000000000000000000e+00 0.000000000000000000e+00
 8.282891018326313248e-03 0.000000000000000000e+00 0.000000000000000000e+00
 1.656578195130714234e-02 0.000000000000000000e+00 0.000000000000000000e+00
 2.484867271359700314e-02 0.000000000000000000e+00 0.000000000000000000e+00
 3.313156321985042535e-02 0.000000000000000000e+00 0.000000000000000000e+00
 4.141445338472191096e-02 0.000000000000000000e+00 0.000000000000000000e+00
 4.969734312286601396e-02 0.000000000000000000e+00 0.000000000000000000e+00
 5.798023234893723982e-02 0.000000000000000000e+00 0.000000000000000000e+00
 6.626312097759014252e-02 0.000000000000000000e+00 0.000000000000000000e+00
 7.454600892347923446e-02 0.000000000000000000e+00 0.000000000000000000e+00
 8.282889610125911128e-02 0.000000000000000000e+00 0.000000000000000000e+00
 9.111178242558426454e-02 0.000000000000000000e+00 0.000000000000000000e+00
 9.939466781110931071e-02 0.000000000000000000e+00 0.000000000000000000e+00
 1.076775521724888246e-01 0.000000000000000000e+00 0.000000000000000000e+00
 1.159604354243773811e-01 0.000000000000000000e+00 0.000000000000000000e+00
 1.242433174814295271e-01 0.000000000000000000e+00 0.000000000000000000e+00
 1.325261982582999765e-01 0.000000000000000000e+00 0.000000000000000000e+00
 1.408090776696432622e-01 0.000000000000000000e+00 0.000000000000000000e+00
 1.490919556301140425e-01 0.000000000000000000e+00 0.000000000000000000e+00
 1.573748320543669754e-01 0.000000000000000000e+00 0.000000000000000000e+00
 1.656577068570567746e-01 0.000000000000000000e+00 0.000000000000000000e+00
 1.739405799528380148e-01 0.000000000000000000e+00 0.000000000000000000e+00
 1.822234512563655207e-01 0.000000000000000000e+00 0.000000000000000000e+00
 1.905063206822939226e-01 0.000000000000000000e+00 0.000000000000000000e+00
 1.987891881452779341e-01 0.000000000000000000e+00 0.000000000000000000e+00
 2.070720535599724632e-01 0.000000000000000000e+00 0.000000000000000000e+00
 2.153549168410321957e-01 0.000000000000000000e+00 0.000000000000000000e+00
 2.236377779031119006e-01 3.371001862185190021e+03 7.344115317379150554e+01
 2.319206366608664027e-01 6.063820503422008187e+03 3.834080191830458517e+01
 2.402034930289506376e-01 5.959308543175950035e+03 2.361347329384051363e+01
 2.484863469220194576e-01 5.483523130373554523e+03 1.997001958459194171e+01
 2.567691982547277152e-01 4.842760665699043784e+03 1.648861070516898053e+01
 2.650520469417302905e-01 4.295078290212045431e+03 1.395269757172514602e+01
 2.733348928976822578e-01 3.865865081454092433e+03 1.267514607649276037e+01
 2.816177360372385530e-01 3.437946207125398359e+03 1.095914797173527866e+01
 2.899005762750541670e-01 3.105530268717469880e+03 9.889993779951501196e+00
 2.981834135257842022e-01 2.816493684909029071e+03 9.076548216658782309e+00
 3.064662477040835387e-01 2.595458108396658190e+03 8.298667172486936749e+00
 3.147490787246074451e-01 2.387720313185178384e+03 7.613932303039598004e+00
 3.230319065020110791e-01 2.229032195680072618e+03 7.184211980537888564e+00
 3.313147309509495986e-01 2.083258497219421315e+03 6.743410300198431351e+00
 3.395975519860781056e-01 1.958071995833914571e+03 6.265747272983529292e+00
 3.478803695220519243e-01 1.848763511702508822e+03 5.980643524036212355e+00
 3.561631834735261570e-01 1.752674510650709635e+03 5.657943074054094801e+00
 3.644459937551564055e-01 1.665268417765560116e+03 5.402151074975169998e+00
 3.727288002815978829e-01 1.585388130609975178e+03 5.151086541935598007e+00
 3.810116029675059135e-01 1.521071201455712526e+03 4.918535076574571896e+00
 3.892944017275360435e-01 1.453344002595073107e+03 4.744539230392449625e+00
 3.975771964763435418e-01 1.385705476168273208e+03 4.696912039326107013e+00
 4.058599871285842320e-01 1.312670788053701472e+03 5.073326611111663276e+00
 4.141427735989132719e-01 1.261294367705226250e+03 5.250645274329198919e+00
 4.224255558019865964e-01 1.229357996134940322e+03 5.496784137084762101e+00
 4.307083336524596962e-01 1.197465928587005010e+03 5.613578295401730145e+00
 4.389911070649882840e-01 1.173007406995700876e+03 5.693391999137223713e+00
 4.472738759542279618e-01 1.141295190926237638e+03 5.767303583832489089e+00
 4.555566402348347199e-01 1.122084533632192233e+03 5.998221603194751061e+00
 4.638393998214642155e-01 1.103535882497396869e+03 6.122696996725544238e+00
 4.721221546287724391e-01 1.092660839991937337e+03 6.098931444579695160e+00
 4.804049045714152144e-01 1.075592176843239258e+03 6.297076131816178091e+00
 4.886876495640486984e-01 1.058974488680554032e+03 6.436371249610214562e+00
 4.969703895213286593e-01 1.055845911018796414e+03 6.556378045038856683e+00
 5.052531243579111431e-01 1.024977497013001766e+03 6.657578480362349893e+00
 5.135358539884525841e-01 1.019611339520191450e+03 6.703845660926128325e+00
 5.218185783276089174e-01 1.015592862768971486e+03 6.975038000090409973e+00
 5.301012972900364106e-01 9.986187750822768976e+02 7.011616822501713031e+00
 5.383840107903915539e-01 9.890286514556881912e+02 6.914335216801769768e+00
 5.466667187433302821e-01 9.594772185371417663e+02 4.952108579941556066e+00
 5.549494210635095293e-01 9.326617042077787119e+02 4.419522857399189597e+00
 5.632321176655852302e-01 9.074153365056409939e+02 4.096896525136630274e+00
 5.715148084642142079e-01 8.896469917973998918e+02 3.838665640741091067e+00
 5.797974933740530634e-01 8.802060004843588104e+02 3.669326112286504404e+00
 5.880801723097583977e-01 8.701276377679317875e+02 3.519397468990855593e+00
 5.963628451859867008e-01 8.566498848386165719e+02 3.385291586891121085e+00
 6.046455119173949067e-01 8.410777097115666265e+02 3.290352967563588749e+00
 6.129281724186399494e-01 8.355313188284749231e+02 3.179989093747128237e+00
 6.212108266043785409e-01 8.253927979874238190e+02 3.086801579031410725e+00
 6.294934743892678375e-01 8.187817242535792275e+02 3.025688709196578507e+00
 6.377761156879645510e-01 8.069470382095584000e+02 2.955597498071100837e+00
 6.460587504151260596e-01 8.000101830009524519e+02 2.887709881032577641e+00
 6.543413784854094084e-01 7.919088945777193658e+02 2.808825966194916202e+00
 6.626239998134720866e-01 7.862241048928817690e+02 2.735579320127270009e+00
 6.709066143139708061e-01 7.769688561419492316e+02 2.686081329132779860e+00
 6.791892219015631671e-01 7.752195207087224844e+02 2.641974536073834923e+00
 6.874718224909069919e-01 7.714386663985874293e+02 2.591420793972860181e+00
 6.957544159966593256e-01 7.666922977904220033e+02 2.544957617296744079e+00
 7.040370023334781013e-01 7.604412125746569018e+02 2.497262406928676182e+00
 7.123195814160205863e-01 7.533836444886323989e+02 2.456237418933118200e+00
 7.206021531589449358e-01 7.538294977553938452e+02 2.418534153378918639e+00
 7.288847174769086390e-01 7.489661273191377404e+02 2.385403742507812286e+00
 7.371672742845696291e-01 7.443396051656300187e+02 2.345940143810381073e+00
 7.454498234965860615e-01 7.425507505656610192e+02 2.322286585174535567e+00
 7.537323650276155362e-01 7.365608287078165404e+02 2.310804125033217193e+00
 7.620148987923167638e-01 7.324228164753712917e+02 2.281671807870234936e+00
 7.702974247053477885e-01 7.276448428813065448e+02 2.255261067836328071e+00
 7.785799426813664326e-01 7.305334839370422060e+02 2.227370233967620461e+00
 7.868624526350316284e-01 7.225167013417775479e+02 2.191977667247298367e+00
 7.951449544810013093e-01 7.258261428041427052e+02 2.174513525743775322e+00
 8.034274481339344076e-01 7.241372032614718819e+02 2.133247384585930995e+00
 8.117099335084893008e-01 7.224860901328335103e+02 2.109381646905989172e+00
 8.199924105193249213e-01 7.236135512797368392e+02 2.082759145395336020e+00
 8.282748790810998685e-01 7.216396978375879598e+02 2.062601255003319700e+00
 8.365573391084727417e-01 7.230945056657416217e+02 2.045919316701642732e+00
 8.448397905161031396e-01 7.219787347066206848e+02 2.027177473177264044e+00
 8.531222332186496615e-01 7.195945363637489436e+02 2.011698002001002905e+00
 8.614046671307716840e-01 7.207015141535449629e+02 2.008660763752978529e+00
 8.696870921671282506e-01 7.239540123437419652e+02 2.009325088625796063e+00
 8.779695082423782937e-01 7.250744539059986664e+02 2.004600809842772779e+00
 8.862519152711821890e-01 7.260288876347725591e+02 1.995578090953009198e+00
 8.945343131681986470e-01 7.374850201241065406e+02 2.005767368135860984e+00
 9.028167018480877104e-01 7.550027498119491156e+02 2.015411702321838749e+00
 9.110990812255088667e-01 7.874791736782727867e+02 2.035835757099684340e+00
 9.193814512151218254e-01 8.416852186473713573e+02 2.085616074835999978e+00
 9.276638117315866294e-01 9.386128550208303523e+02 2.185556165085249081e+00
 9.359461626895632103e-01 1.112460518479932034e+03 2.359928849057833400e+00
 9.442285040037114996e-01 1.382748464728213548e+03 2.605090311756659727e+00
 9.525108355886920952e-01 1.676510479057012390e+03 2.851058690387484607e+00
 9.607931573591649288e-01 1.823140538078313057e+03 2.941211682169051933e+00
 9.690754692297903761e-01 1.781022412413743041e+03 2.893342910170565663e+00
 9.773577711152288128e-01 1.659139972082086615e+03 2.761925009246132490e+00
 9.856400629301415028e-01 1.512740626918562612e+03 2.620742048540412927e+00
 9.939223445891883779e-01 1.366578106207275368e+03 2.476204743656308160e+00
 1.002204616007030369e+00 1.217914036484513645e+03 2.317899124344013462e+00
 1.010486877098328851e+00 1.073337951758621784e+03 2.160838811368431589e+00
 1.018769127777744199e+00 9.547945436720694943e+02 2.024853141978186777e+00
 1.027051367959938233e+00 8.568095771465722237e+02 1.904139703975887610e+00
 1.035333597559571439e+00 7.849942492890131689e+02 1.810661023163934624e+00
 1.043615816491305415e+00 7.384237512876188703e+02 1.742761749148043382e+00
 1.051898024669801757e+00 7.138290869085280974e+02 1.704967469607429065e+00
 1.060180222009722062e+00 6.987179234035364743e+02 1.675982182181269931e+00
 1.068462408425727928e+00 6.891992815481503385e+02 1.652734240388061826e+00
 1.076744583832480728e+00 6.876115781075154700e+02 1.645538965285018307e+00
 1.085026748144642728e+00 6.870899516396490299e+02 1.625624083283861987e+00
 1.093308901276876188e+00 6.815557346340177673e+02 1.611719507211100799e+00
 1.101591043143842708e+00 6.795553330639597789e+02 1.602496084476122240e+00
 1.109873173660204992e+00 6.758815194533264048e+02 1.591220962514653614e+00
 1.118155292740624862e+00 6.741931397508133159e+02 1.578367782933248975e+00
 1.126437400299765024e+00 6.718610618610821348e+02 1.567690541139880045e+00
 1.134719496252288407e+00 6.695733713181076610e+02 1.557911968372538425e+00
 1.143001580512857496e+00 6.686828112860284818e+02 1.547092602717031307e+00
 1.151283652996134776e+00 6.678872035178328588e+02 1.539470726164955838e+00
 1.159565713616783622e+00 6.658821827729146889e+02 1.530553308787145017e+00
 1.167847762289466962e+00 6.653365929185491723e+02 1.521916012086492742e+00
 1.176129798928847947e+00 6.626250135944598014e+02 1.510291731395762227e+00
 1.184411823449590173e+00 6.651768120486375437e+02 1.506245718861648042e+00
 1.192693835766356347e+00 6.644394292739063985e+02 1.498241569841471055e+00
 1.200975835793810953e+00 6.604561149763402454e+02 1.485300124288407186e+00
 1.209257823446617142e+00 6.620814116293663574e+02 1.483723172506573817e+00
 1.217539798639438953e+00 6.604359304540638504e+02 1.474542189346078613e+00
 1.225821761286940648e+00 6.604283480582515722e+02 1.467305574766773368e+00
 1.234103711303785378e+00 6.589980871948886261e+02 1.456105488026831596e+00
 1.242385648604638071e+00 6.618945143886767255e+02 1.452599145596668251e+00
 1.250667573104162988e+00 6.602756367175657033e+02 1.449234403181219877e+00
 1.258949484717024170e+00 6.575430795831694013e+02 1.434445989556581313e+00
 1.267231383357886987e+00 6.601592790737655605e+02 1.434214580709938014e+00
 1.275513268941415479e+00 6.594062169601418191e+02 1.426193280806198116e+00
 1.283795141382275462e+00 6.560563832913462647e+02 1.415218490487559322e+00
 1.292077000595130754e+00 6.572920424759890921e+02 1.413586840614925011e+00
 1.300358846494647169e+00 6.580428480257337469e+02 1.406135821007193920e+00
 1.308640678995489637e+00 6.567910314979855002e+02 1.401904746635783905e+00
 1.316922498012323972e+00 6.557222381684864558e+02 1.388866229854476053e+00
 1.325204303459816213e+00 6.545464520225648357e+02 1.388003316579647040e+00
 1.333486095252630399e+00 6.532360347515636931e+02 1.376521279609221660e+00
 1.341767873305433900e+00 6.551686906163631647e+02 1.376187935545398977e+00
 1.350049637532892088e+00 6.546522861401952014e+02 1.372179117634572121e+00
 1.358331387849671223e+00 6.532792816264392286e+02 1.360265384566359037e+00
 1.366613124170437343e+00 6.532660493895449463e+02 1.358329329891521997e+00
 1.374894846409857596e+00 6.552674008954970759e+02 1.353024563556611604e+00
 1.383176554482598242e+00 6.536135412853587923e+02 1.346971869273615896e+00
 1.391458248303325096e+00 6.544789287021473001e+02 1.344253282249816772e+00
 1.399739927786705973e+00 6.536503624330993034e+02 1.332524175741443884e+00
 1.408021592847407577e+00 6.530251397251624894e+02 1.331547676680335357e+00
 1.416303243400097500e+00 6.519121200328754639e+02 1.321804887603359013e+00
 1.424584879359441336e+00 6.524598918494301643e+02 1.322470861313562063e+00
 1.432866500640109120e+00 6.506375226674390433e+02 1.313381537323197623e+00
 1.441148107156766667e+00 6.490778766228260110e+02 1.304370992886890956e+00
 1.449429698824082013e+00 6.510424225336166728e+02 1.303676463635368155e+00
 1.457711275556723640e+00 6.504137065673606912e+02 1.297554063107922095e+00
 1.465992837269358917e+00 6.492626992247355702e+02 1.295986166402945949e+00
 1.474274383876656547e+00 6.473667896825016896e+02 1.283041909226977584e+00
 1.482555915293284565e+00 6.486112916217334714e+02 1.284274580957044831e+00
 1.490837431433911897e+00 6.475035704621775494e+02 1.277404411230310677e+00
 1.499118932213207023e+00 6.483781949927139294e+02 1.273561624731712083e+00
 1.507400417545837978e+00 6.466160364703586083e+02 1.267379205992299029e+00
 1.515681887346475243e+00 6.462016585048407933e+02 1.262862346984560347e+00
 1.523963341529786852e+00 6.464754642373374054e+02 1.260314168778143395e+00
 1.532244780010442842e+00 6.462230902157269838e+02 1.254684853226215813e+00
 1.540526202703112579e+00 6.435228266600261122e+02 1.247322016617996132e+00
 1.548807609522464990e+00 6.436960469571397425e+02 1.243456782422060813e+00
 1.557089000383170552e+00 6.440392637233238702e+02 1.237303861937195437e+00
 1.565370375199899078e+00 6.433007089357986388e+02 1.237697990371746437e+00
 1.573651733887320825e+00 6.437264214499482478e+02 1.229807402468293231e+00
 1.581933076360106494e+00 6.427391269595869971e+02 1.226883799325842128e+00
 1.590214402532925009e+00 6.400985597929160349e+02 1.219816578569616228e+00
 1.598495712320448403e+00 6.402984422890484666e+02 1.217621169965918293e+00
 1.606777005637347600e+00 6.384062807457977442e+02 1.212229706790163952e+00
 1.615058282398292855e+00 6.411783771537458279e+02 1.208529271614973366e+00
 1.623339542517955758e+00 6.379155841798287838e+02 1.205879677528898242e+00
 1.631620785911007232e+00 6.379402364279864059e+02 1.200866444688138301e+00
 1.639902012492119088e+00 6.382490073257112044e+02 1.197188760693743470e+00
 1.648183222175963358e+00 6.367809327035635079e+02 1.191969534532340669e+00
 1.656464414877210523e+00 6.362203136971014601e+02 1.188382829098111326e+00
 1.664745590510534390e+00 6.366271148173727852e+02 1.186132686918971890e+00
 1.673026748990605217e+00 6.337218928284113417e+02 1.178711218977678721e+00
 1.681307890232097257e+00 6.331604062790553371e+02 1.176417091084049460e+00
 1.689589014149681878e+00 6.341075922228786794e+02 1.174093167385753311e+00
 1.697870120658032445e+00 6.329075646619367035e+02 1.169017548610647328e+00
 1.706151209671821434e+00 6.329310190472756403e+02 1.166131440227813787e+00
 1.714432281105722433e+00 6.303009855500695267e+02 1.158814753816127530e+00
 1.722713334874407698e+00 6.292405275130787459e+02 1.154997806827457563e+00
 1.730994370892551482e+00 6.281259261495508781e+02 1.152829323048979226e+00
 1.739275389074827372e+00 6.280983468966638839e+02 1.149540316344578539e+00
 1.747556389335909399e+00 6.265757625961657595e+02 1.142898321588748489e+00
 1.755837371590470042e+00 6.250043464353486797e+02 1.139757757268638816e+00
 1.764118335753185551e+00 6.241865405194882896e+02 1.135550571241363604e+00
 1.772399281738729293e+00 6.219313383524602159e+02 1.131162925170989375e+00
 1.780680209461775965e+00 6.214994987559110768e+02 1.127440723363437813e+00
 1.788961118837000264e+00 6.232569747429616882e+02 1.127305792781200688e+00
 1.797242009779077554e+00 6.212405269373789451e+02 1.121557046669585000e+00
 1.805522882202682089e+00 6.201051371942218111e+02 1.117073576949340286e+00
 1.813803736022489677e+00 6.203311322078216108e+02 1.115734591797437059e+00
 1.822084571153175681e+00 6.180412191620821432e+02 1.107852723747328350e+00
 1.830365387509416353e+00 6.162309575674729558e+02 1.107604631870031886e+00
 1.838646185005886613e+00 6.158419388503376695e+02 1.103417459713130322e+00
 1.846926963557263379e+00 6.173330805236342940e+02 1.101490837300826975e+00
 1.855207723078222459e+00 6.152722102281618390e+02 1.095888005850800928e+00
 1.863488463483440993e+00 6.163974509023037172e+02 1.095087590354866913e+00
 1.871769184687595011e+00 6.141045876961517251e+02 1.090664402166107161e+00
 1.880049886605361653e+00 6.140566334056396727e+02 1.086290550469653393e+00
 1.888330569151417393e+00 6.171223099940021939e+02 1.087432671735298451e+00
 1.896611232240440703e+00 6.192860462283373408e+02 1.086543272297596729e+00
 1.904891875787107836e+00 6.253990497655680656e+02 1.087560481525082778e+00
 1.913172499706096819e+00 6.383115789909843443e+02 1.098405936420726814e+00
 1.921453103912086124e+00 6.611353614756209254e+02 1.113473181103310949e+00
 1.929733688319753337e+00 6.953684307952981953e+02 1.140400684899223416e+00
 1.938014252843776708e+00 7.426276454507185463e+02 1.174473207234884242e+00
 1.946294797398835152e+00 7.829714285920862267e+02 1.204974566637826205e+00
 1.954575321899606921e+00 7.948014201096134457e+02 1.211029480426744298e+00
 1.962855826260770709e+00 7.851005757501773132e+02 1.199130160741356699e+00
 1.971136310397006319e+00 7.623268601026068154e+02 1.179048818320845626e+00
 1.979416774222992670e+00 7.376130409101280065e+02 1.157144942241222330e+00
 1.987697217653409121e+00 7.102834844310275457e+02 1.133450039863438397e+00
 1.995977640602935699e+00 6.833807446191258350e+02 1.111651870762862204e+00
 2.004258042986251986e+00 6.608546188719724341e+02 1.086626172131983203e+00
 2.012538424718038677e+00 6.407797069398815211e+02 1.070532654539454009e+00
 2.020818785712976240e+00 6.240719469410839793e+02 1.051500299139048078e+00
 2.029099125885744481e+00 6.120630537693866700e+02 1.040298038484661625e+00
 2.037379445151024537e+00 6.013450965329265046e+02 1.028199340928571903e+00
 2.045659743423497989e+00 5.966973035104832661e+02 1.022422269024427122e+00
 2.053940020617845530e+00 5.924913397874262273e+02 1.018366584081204840e+00
 2.062220276648748296e+00 5.900319876809737707e+02 1.010737280353662948e+00
 2.070500511430888757e+00 5.863551295751740327e+02 1.006385854263108115e+00
 2.078780724878947606e+00 5.847440633875755793e+02 1.002785512881672059e+00
 2.087060916907608199e+00 5.838050332016994162e+02 1.000207782377426691e+00
 2.095341087431552562e+00 5.827424534945195091e+02 9.972166499407114637e-01
 2.103621236365462721e+00 5.806708621425872252e+02 9.929569334810040004e-01
 2.111901363624022032e+00 5.778149872919158270e+02 9.894102456132041201e-01
 2.120181469121912965e+00 5.776770972597406626e+02 9.845084431313325668e-01
 2.128461552773819321e+00 5.759799598793468931e+02 9.821861122509651931e-01
 2.136741614494424457e+00 5.747940047884467276e+02 9.796885288223335930e-01
 2.145021654198411287e+00 5.736909326813957932e+02 9.768638129893082445e-01
 2.153301671800464501e+00 5.727814506140591675e+02 9.734111574318612403e-01
 2.161581667215267455e+00 5.717484915225327313e+02 9.702285670688665098e-01
 2.169861640357505728e+00 5.694804310641815164e+02 9.661175964152320939e-01
 2.178141591141862676e+00 5.717746626315064304e+02 9.806492400439360546e-01
 2.186421519483023879e+00 5.763805300165212202e+02 1.007682911029692541e+00
 2.194701425295674468e+00 5.802059641172788815e+02 1.026917925407242693e+00
 2.202981308494498691e+00 5.821876553305488642e+02 1.037967778450360923e+00
 2.211261168994183457e+00 5.834072068822487154e+02 1.049298809341365102e+00
 2.219541006709413455e+00 5.836868117515541599e+02 1.057374155120947679e+00
 2.227820821554874708e+00 5.830320691196151301e+02 1.064842715722562838e+00
 2.236100613445254570e+00 5.852644131077078100e+02 1.073555164128739969e+00
 2.244380382295237286e+00 5.852170019325395742e+02 1.077764807087880028e+00
 2.252660128019511543e+00 5.869589593634111679e+02 1.086330297229570085e+00
 2.260939850532763806e+00 5.870291133072647654e+02 1.092660482178421821e+00
 2.269219549749680986e+00 5.877423235743397072e+02 1.101119804694071114e+00
 2.277499225584950437e+00 5.860446703629369267e+02 1.099528400348367407e+00
 2.285778877953259958e+00 5.831608895582237437e+02 1.098662849106436745e+00
 2.294058506769297345e+00 5.857782573000797584e+02 1.101339356419894999e+00
 2.302338111947751287e+00 5.853447932333568815e+02 1.108125625057511554e+00
 2.310617693403309136e+00 5.858957732552295283e+02 1.112592672566506957e+00
 2.318897251050660469e+00 5.826320290797621055e+02 1.099160364861399009e+00
 2.327176784804492637e+00 5.736709375571667806e+02 1.061042291628100376e+00
 2.335456294579496994e+00 5.677356573540904492e+02 1.034499753762906593e+00
 2.343735780290361337e+00 5.616721739892888081e+02 1.020282823393304117e+00
 2.352015241851775684e+00 5.600931296180223171e+02 1.010110004791253902e+00
 2.360294679178430055e+00 5.561602567141479767e+02 9.973452413544220407e-01
 2.368574092185014024e+00 5.519326422926460509e+02 9.874948157422140937e-01
 2.376853480786218054e+00 5.504913043925123475e+02 9.801086826494287418e-01
 2.385132844896733495e+00 5.477196310974834432e+02 9.740857334922469191e-01
 2.393412184431250367e+00 5.459048837157998832e+02 9.653889892144292828e-01
 2.401691499304460464e+00 5.431603773645647379e+02 9.579131026233501656e-01
 2.409970789431054250e+00 5.411887420713694610e+02 9.550140359395640210e-01
 2.418250054725723963e+00 5.407901218932552183e+02 9.512119299935257732e-01
 2.426529295103161843e+00 5.393637146290665214e+02 9.512007748288054954e-01
 2.434808510478059240e+00 5.376530815488559938e+02 9.436262635627215012e-01
 2.443087700765109282e+00 5.356590003829950319e+02 9.389635272558292112e-01
 2.451366865879003765e+00 5.323738092835760654e+02 9.336338797965791914e-01
 2.459646005734436258e+00 5.302087152786842807e+02 9.269554322554679482e-01
 2.467925120246099890e+00 5.295697243896116788e+02 9.261622058190056572e-01
 2.476204209328687789e+00 5.292569899809683420e+02 9.204996337397306494e-01
 2.484483272896893524e+00 5.279758200109437212e+02 9.163639965496653828e-01
 2.492762310865411113e+00 5.247651544841943405e+02 9.129384797634221282e-01
 2.501041323148935902e+00 5.252386998909940985e+02 9.088952377773201752e-01
 2.509320309662160131e+00 5.239083092372891315e+02 9.074312796506797119e-01
 2.517599270319780924e+00 5.221393738565485592e+02 9.007366974892407896e-01
 2.525878205036491853e+00 5.205561023639882023e+02 8.978454033702346626e-01
 2.534157113726988264e+00 5.176255226360166262e+02 8.924685602326168921e-01
 2.542435996305966839e+00 5.171365179883856626e+02 8.894417542866385196e-01
 2.550714852688121148e+00 5.162074909349931886e+02 8.878787677435373560e-01
 2.558993682788150092e+00 5.163320421455506448e+02 8.841544305128684611e-01
 2.567272486520748132e+00 5.150671989703440659e+02 8.818616791159947788e-01
 2.575551263800612833e+00 5.123177102687473052e+02 8.773960092101127373e-01
 2.583830014542439546e+00 5.111877086627239919e+02 8.734389295860389701e-01
 2.592108738660928058e+00 5.096423176673018816e+02 8.700910860747498310e-01
 2.600387436070773273e+00 5.089917730840863896e+02 8.674041206243529034e-01
 2.608666106686674091e+00 5.079680686145500204e+02 8.646561801084430288e-01
 2.616944750423328969e+00 5.067621395000764437e+02 8.610981935577631807e-01
 2.625223367195435475e+00 5.052181368489310671e+02 8.579826624819709702e-01
 2.633501956917692066e+00 5.049859477932008076e+02 8.563439896219012804e-01
 2.641780519504797642e+00 5.031433095490444884e+02 8.518089307524681075e-01
 2.650059054871451547e+00 5.022554364613594089e+02 8.499469589909501854e-01
 2.658337562932353570e+00 4.997991619950236100e+02 8.459291433731832566e-01
 2.666616043602202613e+00 4.999800603079096959e+02 8.440453715714708594e-01
 2.674894496795699794e+00 4.990147606201536519e+02 8.406513256153512748e-01
 2.683172922427544016e+00 4.978144286074988258e+02 8.389345364600820920e-01
 2.691451320412435511e+00 4.962852478077098226e+02 8.361686126824990906e-01
 2.699729690665076731e+00 4.951441028780139959e+02 8.329727182281143616e-01
 2.708008033100168355e+00 4.950489439110078820e+02 8.316553599106970562e-01
 2.716286347632410614e+00 4.938273202456555850e+02 8.271330170908247625e-01
 2.724564634176505962e+00 4.914350320491071216e+02 8.248771640822099016e-01
 2.732842892647156408e+00 4.907323764746168990e+02 8.215900111719468546e-01
 2.741121122959064405e+00 4.914098738536472979e+02 8.218743759439104402e-01
 2.749399325026931962e+00 4.892482852664865050e+02 8.177147624139277093e-01
 2.757677498765461976e+00 4.876710764363070325e+02 8.154210971373383465e-01
 2.765955644089357790e+00 4.869241403797739736e+02 8.128936703284651566e-01
 2.774233760913324076e+00 4.866322985349122519e+02 8.105558740496704440e-01
 2.782511849152061956e+00 4.855772174965292720e+02 8.075331220170769431e-01
 2.790789908720276991e+00 4.856676587173084272e+02 8.078796047015115445e-01
 2.799067939532673410e+00 4.846544947030616299e+02 8.035346516011691032e-01
 2.807345941503955000e+00 4.837434430284236555e+02 8.034818242040320246e-01
 2.815623914548828211e+00 4.827875057043239053e+02 7.997908849782970897e-01
 2.823901858581996382e+00 4.812952933168238019e+02 7.962167010783451904e-01
 2.832179773518166854e+00 4.808743034166281518e+02 7.958683987719518127e-01
 2.840457659272043855e+00 4.806362300250964381e+02 7.922545635942245257e-01
 2.848735515758333836e+00 4.805305982559156064e+02 7.925557222577790384e-01
 2.857013342891743690e+00 4.792285520851139609e+02 7.888112750026816666e-01
 2.865291140586980312e+00 4.796997536249508016e+02 7.879212336393386362e-01
 2.873568908758749707e+00 4.818690089974522834e+02 7.887125354703929947e-01
 2.881846647321760102e+00 4.818157116883264734e+02 7.865142523535665342e-01
 2.890124356190718835e+00 4.842111134340319722e+02 7.881507927682095405e-01
 2.898402035280333688e+00 4.907383137298211864e+02 7.909441343543798242e-01
 2.906679684505312000e+00 5.021658434037213965e+02 7.993681642034954349e-01
 2.914957303780364661e+00 5.192755125559428961e+02 8.109395403939664293e-01
 2.923234893020198122e+00 5.451199409619150629e+02 8.290721510702466768e-01
 2.931512452139522829e+00 5.664024369040752163e+02 8.446023887565637933e-01
 2.939789981053047452e+00 5.784663550362085971e+02 8.519751362912812986e-01
 2.948067479675482883e+00 5.769110491238105851e+02 8.486355632790751891e-01
 2.956344947921537791e+00 5.676850540820736342e+02 8.417568276718317977e-01
 2.964622385705923513e+00 5.542714358108386250e+02 8.285272392931618546e-01
 2.972899792943350938e+00 5.363815669785601585e+02 8.148574448621962452e-01
 2.981177169548529626e+00 5.198843590695867078e+02 8.004345727696072776e-01
 2.989454515436173132e+00 5.040555735033831297e+02 7.864306048998662702e-01
 2.997731830520991458e+00 4.924153352920856719e+02 7.767015783803996598e-01
 3.006009114717697273e+00 4.825418781646072262e+02 7.675540786734109666e-01
 3.014286367941001465e+00 4.742827783702414877e+02 7.600007838810176608e-01
 3.022563590105618037e+00 4.694867763861793719e+02 7.536286744170428431e-01
 3.030840781126260985e+00 4.677699206526187936e+02 7.515394976414236927e-01
 3.039117940917641647e+00 4.646596579322587672e+02 7.486131973193325129e-01
 3.047395069394473577e+00 4.627848366916082341e+02 7.453337163937289178e-01
 3.055672166471472107e+00 4.626468558890834402e+02 7.436064825553126978e-01
 3.063949232063350347e+00 4.601821610054884673e+02 7.403246482398183614e-01
 3.072226266084823632e+00 4.596317577850377916e+02 7.388649877769389862e-01
 3.080503268450605958e+00 4.590219393205517804e+02 7.371444864262782781e-01
 3.088780239075412215e+00 4.581009017169205890e+02 7.349649754780881450e-01
 3.097057177873959510e+00 4.578383660045350325e+02 7.340244137344915654e-01
 3.105334084760962732e+00 4.577147930961456268e+02 7.324185344299367628e-01
 3.113610959651137655e+00 4.567464344595050534e+02 7.304671678091255727e-01
 3.121887802459201389e+00 4.564664838640226208e+02 7.297638837852417071e-01
 3.130164613099871040e+00 4.566855469693446139e+02 7.282416853986493077e-01
 3.138441391487863275e+00 4.562985474063109450e+02 7.262482718829811335e-01
 3.146718137537894755e+00 4.551070135032270514e+02 7.247760073710662887e-01
 3.154994851164685699e+00 4.540177644634193257e+02 7.226840350355540066e-01
 3.163271532282951881e+00 4.547196550178092593e+02 7.224378106552449275e-01
 3.171548180807412187e+00 4.554402760867897086e+02 7.210985990009519675e-01
 3.179824796652786389e+00 4.547818066870537450e+02 7.201148130672782033e-01
 3.188101379733793816e+00 4.532166384335781117e+02 7.170627477802894445e-01
 3.196377929965152465e+00 4.547499158577605272e+02 7.179438508910818140e-01
 3.204654447261584771e+00 4.541131636022269049e+02 7.161737821092646339e-01
 3.212930931537807844e+00 4.533937256118958885e+02 7.142713278365204754e-01
 3.221207382708544564e+00 4.531498334165772235e+02 7.131269164211967437e-01
 3.229483800688513817e+00 4.546698391844550429e+02 7.128733643486158122e-01
 3.237760185392439816e+00 4.549722610599000063e+02 7.127868263443497554e-01
 3.246036536735040556e+00 4.546378156625813745e+02 7.108893702405082449e-01
 3.254312854631040697e+00 4.550299934044963379e+02 7.101605884636474908e-01
 3.262589138995160454e+00 4.554581235679565907e+02 7.099047321337556005e-01
 3.270865389742124041e+00 4.564133086082438240e+02 7.092277910739417379e-01
 3.279141606786652563e+00 4.567498564065910500e+02 7.083922093364224404e-01
 3.287417790043471122e+00 4.564366084421407095e+02 7.073240454510878461e-01
 3.295693939427303487e+00 4.570368787372208885e+02 7.057612254987141176e-01
 3.303970054852871652e+00 4.573718537796684700e+02 7.061641305310695227e-01
 3.312246136234902050e+00 4.581845204440987800e+02 7.060938854152343236e-01
 3.320522183488118451e+00 4.586045310068083154e+02 7.046227116091775544e-01
 3.328798196527245512e+00 4.596295839826685778e+02 7.042669928965266113e-01
 3.337074175267008780e+00 4.613358633609624917e+02 7.042679904341679897e-01
 3.345350119622133800e+00 4.621439266526465417e+02 7.041987198672888804e-01
 3.353626029507347894e+00 4.627745458142158554e+02 7.038063459219717766e-01
 3.361901904837376609e+00 4.635336492535762432e+02 7.027632362434996782e-01
 3.370177745526946378e+00 4.649349332067760656e+02 7.032629286730882612e-01
 3.378453551490785411e+00 4.660013695993190481e+02 7.029948487576592742e-01
 3.386729322643620588e+00 4.674526564595511786e+02 7.036224581900059061e-01
 3.395005058900179229e+00 4.688341217750992200e+02 7.032893996911190326e-01
 3.403280760175190434e+00 4.704047337323739839e+02 7.033542679336308723e-01
 3.411556426383382412e+00 4.719996061935482317e+02 7.028383854919491025e-01
 3.419832057439484263e+00 4.731782572542330172e+02 7.042453323341891780e-01
 3.428107653258225973e+00 4.740627578019687007e+02 7.035219775593867242e-01
 3.436383213754335753e+00 4.761268565787132729e+02 7.034928636012461878e-01
 3.444658738842544476e+00 4.778588695915354378e+02 7.039257528687375975e-01
 3.452934228437583020e+00 4.795966432352063862e+02 7.045883454042358718e-01
 3.461209682454181813e+00 4.800841055748481381e+02 7.030386074184350464e-01
 3.469485100807071287e+00 4.820763005632149998e+02 7.056318173357314372e-01
 3.477760483410984094e+00 4.836140099258324199e+02 7.039445222557793036e-01
 3.486035830180650663e+00 4.856634637061364401e+02 7.047578532988456601e-01
 3.494311141030804535e+00 4.867662603575606113e+02 7.043654788855335802e-01
 3.502586415876177917e+00 4.875886058829211152e+02 7.040413999076755580e-01
 3.510861654631503903e+00 4.885683723384739210e+02 7.043904548469124283e-01
 3.519136857211515590e+00 4.897259494530536017e+02 7.037963930502389998e-01
 3.527412023530947849e+00 4.894180932014908194e+02 7.029089432306188101e-01
 3.535687153504532443e+00 4.899940998840725115e+02 7.025250379198754169e-01
 3.543962247047006020e+00 4.916803589251143194e+02 7.007395196077091937e-01
 3.552237304073103008e+00 4.918286561257106655e+02 7.002335536073431843e-01
 3.560512324497557834e+00 4.917392394293624989e+02 6.970066918976872694e-01
 3.568787308235106703e+00 4.915628647957785233e+02 6.955729417672021908e-01
 3.577062255200485374e+00 4.901234440553291734e+02 6.926390652000600223e-01
 3.585337165308430052e+00 4.905506125319545845e+02 6.910410334677625777e-01
 3.593612038473678272e+00 4.897249927442899207e+02 6.906694019658916606e-01
 3.601886874610966238e+00 4.894853418300367593e+02 6.897030683404052898e-01
 3.610161673635032376e+00 4.892344596649981554e+02 6.891078672252115567e-01
 3.618436435460614220e+00 4.871439726243983728e+02 6.871756116277295545e-01
 3.626711160002449308e+00 4.858557097818370494e+02 6.853328155009804634e-01
 3.634985847175277396e+00 4.843914540980750303e+02 6.841753187139122394e-01
 3.643260496893836464e+00 4.828057056432550667e+02 6.819228247250965769e-01
 3.651535109072867158e+00 4.805597803593421418e+02 6.794968699426827685e-01
 3.659809683627108345e+00 4.788698606749681517e+02 6.798336789458462315e-01
 3.668084220471299783e+00 4.762872116323276259e+02 6.772018592668318515e-01
 3.676358719520183893e+00 4.740849091774857698e+02 6.750253259362641867e-01
 3.684633180688500431e+00 4.727683887804273581e+02 6.739862014470194840e-01
 3.692907603890991375e+00 4.695689593635139545e+02 6.721459047311949542e-01
 3.701181989042396925e+00 4.683982558892441830e+02 6.711662624446768088e-01
 3.709456336057461723e+00 4.664188156778849361e+02 6.697667235571658217e-01
 3.717730644850926414e+00 4.643542892474198425e+02 6.686647238834737550e-01
 3.726004915337534307e+00 4.604507357788770037e+02 6.653879260214105029e-01
 3.734279147432029600e+00 4.585266280049477814e+02 6.636971512827100073e-01
 3.742553341049154714e+00 4.569996263739147935e+02 6.633881981263607397e-01
 3.750827496103654735e+00 4.550192662552527736e+02 6.602032283359007270e-01
 3.759101612510273860e+00 4.534387716543336069e+02 6.600046553545838579e-01
 3.767375690183757619e+00 4.504502006643718346e+02 6.570572007117685409e-01
 3.775649729038848879e+00 4.469866636208578257e+02 6.547616217503983149e-01
 3.783923728990297164e+00 4.448568928359549659e+02 6.537291261384717833e-01
 3.792197689952846673e+00 4.439816570310675843e+02 6.517370728905376165e-01
 3.800471611841242492e+00 4.415340192173327409e+02 6.499381010891640553e-01
 3.808745494570235035e+00 4.385812984237797991e+02 6.487511948381775584e-01
 3.817019338054568944e+00 4.379117304877461265e+02 6.479449710196899526e-01
 3.825293142208991970e+00 4.351917949396793119e+02 6.450605140236165269e-01
 3.833566906948252750e+00 4.339473348010238851e+02 6.444264466262487057e-01
 3.841840632187101257e+00 4.325673735618884734e+02 6.427285853600668286e-01
 3.850114317840284350e+00 4.305654633244697038e+02 6.413353012321827418e-01
 3.858387963822552447e+00 4.290518297038327091e+02 6.398442004601087030e-01
 3.866661570048655516e+00 4.285405783308792707e+02 6.391389637871599527e-01
 3.874935136433343974e+00 4.270860970916705810e+02 6.384719701665414471e-01
 3.883208662891366458e+00 4.282348741311243430e+02 6.385496495723220756e-01
 3.891482149337476493e+00 4.289450013783725240e+02 6.393833410634958136e-01
 3.899755595686423604e+00 4.327386375263401987e+02 6.420324321169967874e-01
 3.908029001852960427e+00 4.395032863968432935e+02 6.456871333803471114e-01
 3.916302367751839153e+00 4.460173538807721911e+02 6.514014120532337637e-01
 3.924575693297812862e+00 4.523270341543829431e+02 6.550781155498078823e-01
 3.932848978405633300e+00 4.534449672245212355e+02 6.562374280057587939e-01
 3.941122222990056212e+00 4.501678514790573900e+02 6.536290178041734844e-01
 3.949395426965832900e+00 4.485375078738803722e+02 6.649670321062355338e-01
 3.957668590247719997e+00 4.436778614621527481e+02 6.722326481948260879e-01
 3.965941712750470582e+00 4.397064853124454658e+02 6.761833146598003053e-01
 3.974214794388840843e+00 4.341069917831872544e+02 6.789837806712631929e-01
 3.982487835077585636e+00 4.292418383983611534e+02 6.797862657746934767e-01
 3.990760834731461593e+00 4.245473956731879639e+02 6.807469797620188112e-01
 3.999033793265224901e+00 4.212055877003443811e+02 6.837537637040845828e-01
 4.007306710593632637e+00 4.194930564761812093e+02 6.830972586852755990e-01
 4.015579586631440989e+00 4.176830384309165538e+02 6.859031416087514321e-01
 4.023852421293409698e+00 4.175321050530577054e+02 6.898462531832595390e-01
 4.032125214494294951e+00 4.174412324441044575e+02 6.919185818109867547e-01
 4.040397966148855602e+00 4.168081499468635798e+02 6.971644129807228474e-01
 4.048670676171852278e+00 4.156733060970353790e+02 6.978951929170902346e-01
 4.056943344478042945e+00 4.157915159597064871e+02 7.009005460799333509e-01
 4.065215970982186455e+00 4.159115176201600548e+02 7.043120624560538223e-01
 4.073488555599046990e+00 4.146953706366898587e+02 7.034389138229604210e-01
 4.081761098243380737e+00 4.143636751549778978e+02 7.065644652543845439e-01
 4.090033598829951877e+00 4.107030002373709863e+02 6.907070514010151818e-01
 4.098306057273520153e+00 4.063539707420413265e+02 6.735564468261755477e-01
 4.106578473488847969e+00 4.051167393892350788e+02 6.660094531465315937e-01
 4.114850847390699506e+00 4.035625186842810308e+02 6.602056445617112690e-01
 4.123123178893834506e+00 4.020494140974936386e+02 6.540187939617915225e-01
 4.131395467913019814e+00 4.003578344123296233e+02 6.499031339481131653e-01
 4.139667714363015172e+00 3.985911398015716713e+02 6.466791961572851966e-01
 4.147939918158589201e+00 3.973382828130039002e+02 6.452179753199620560e-01
 4.156212079214503419e+00 3.972942460531887150e+02 6.434569617666738850e-01
 4.164484197445522895e+00 3.959860468737608130e+02 6.404598623613197983e-01
 4.172756272766416252e+00 3.946822734404900643e+02 6.388052446187058031e-01
 4.181028305091945008e+00 3.940609519225029089e+02 6.356582992370017893e-01
 4.189300294336878672e+00 3.928320825441397801e+02 6.334092552294933176e-01
 4.197572240415984091e+00 3.927985281862715965e+02 6.323336228590588082e-01
 4.205844143244027222e+00 3.902490886280379527e+02 6.295376902635015925e-01
 4.214116002735776689e+00 3.902074077556616771e+02 6.275553212280988724e-01
 4.222387818805999338e+00 3.898366515216202970e+02 6.269210639607480928e-01
 4.230659591369465566e+00 3.889568513402737722e+02 6.254255431979884872e-01
 4.238931320340943110e+00 3.888501936342341310e+02 6.237344915845445259e-01
 4.247203005635202366e+00 3.882592543620068568e+02 6.224047173580711245e-01
 4.255474647167013735e+00 3.865022396210934517e+02 6.199904072188172632e-01
 4.263746244851145839e+00 3.853687654649850174e+02 6.187922285469905637e-01
 4.272017798602370853e+00 3.854213724319640164e+02 6.172457667087882793e-01
 4.280289308335460063e+00 3.830434389965399760e+02 6.157001878694917663e-01
 4.288560773965184758e+00 3.836450386927566001e+02 6.150432639223167852e-01
 4.296832195406317112e+00 3.837110493409907122e+02 6.139998464572655745e-01
 4.305103572573631077e+00 3.823509271997147607e+02 6.138915716762324282e-01
 4.313374905381897939e+00 3.809449606444167102e+02 6.098199541405717738e-01
 4.321646193745892539e+00 3.789608622741691306e+02 6.080814151604324591e-01
 4.329917437580389716e+00 3.796595598466225283e+02 6.088273918883884139e-01
 4.338188636800161646e+00 3.790494009399043875e+02 6.070982141056341375e-01
 4.346459791319984944e+00 3.782218400323462788e+02 6.053875048587435970e-01
 4.354730901054635339e+00 3.774598163826619839e+02 6.053274919702918977e-01
 4.363001965918887670e+00 3.771627737550127222e+02 6.036443266062478941e-01
 4.371272985827520330e+00 3.767728677010333058e+02 6.032957984238364046e-01
 4.379543960695307270e+00 3.769419608663935151e+02 6.025586772061198859e-01
 4.387814890437026882e+00 3.763166072527426991e+02 6.011184895834656983e-01
 4.396085774967457560e+00 3.754585034674207691e+02 6.004327419568314950e-01
 4.404356614201377695e+00 3.744015169092948554e+02 5.990659051354080278e-01
 4.412627408053564793e+00 3.744921200578395428e+02 5.980644680823755666e-01
 4.420898156438799020e+00 3.739958149077007761e+02 5.978107974547337555e-01
 4.429168859271858771e+00 3.738405342042777306e+02 5.972409852963606047e-01
 4.437439516467525991e+00 3.733435217541871225e+02 5.963106779792920475e-01
 4.445710127940579959e+00 3.725198746202409552e+02 5.946798464128996153e-01
 4.453980693605802621e+00 3.718243518022402441e+02 5.942125786039722524e-01
 4.462251213377974146e+00 3.719802786198463878e+02 5.933168368300404394e-01
 4.470521687171878256e+00 3.719221138800079984e+02 5.928498130534617383e-01
 4.478792114902294230e+00 3.702623168237896607e+02 5.909672546983654184e-01
 4.487062496484010232e+00 3.692824906277199375e+02 5.903066089313062648e-01
 4.495332831831804654e+00 3.690464455238667938e+02 5.888171220477520507e-01
 4.503603120860464770e+00 3.685905917372878093e+02 5.889376739742362421e-01
 4.511873363484772526e+00 3.687136622862168451e+02 5.876035425743290075e-01
 4.520143559619514306e+00 3.682122914055776164e+02 5.873242231552673331e-01
 4.528413709179474722e+00 3.663503683857931037e+02 5.857345150369005493e-01
 4.536683812079441047e+00 3.664983235217450783e+02 5.844178701725237790e-01
 4.544953868234197003e+00 3.666855033551319707e+02 5.845160244686140594e-01
 4.553223877558529864e+00 3.658533573863221591e+02 5.842267680550257136e-01
 4.561493839967229569e+00 3.645941695546594019e+02 5.816793215037401321e-01
 4.569763755375081615e+00 3.658287782917108757e+02 5.827140457925343853e-01
 4.578033623696874166e+00 3.648942950154421396e+02 5.818174550567398740e-01
 4.586303444847396271e+00 3.647732576645734071e+02 5.808627689923856474e-01
 4.594573218741436982e+00 3.637212473270689657e+02 5.799072327267535965e-01
 4.602842945293786237e+00 3.634186015981580908e+02 5.796826667070440475e-01
 4.611112624419234862e+00 3.633201814279800033e+02 5.778702192387749070e-01
 4.619382256032572798e+00 3.624383719881709567e+02 5.778494106358376126e-01
 4.627651840048589982e+00 3.621282416749380104e+02 5.769049650192417111e-01
 4.635921376382079018e+00 3.620999758116822704e+02 5.759073849699360981e-01
 4.644190864947832509e+00 3.618119344424583232e+02 5.764708612827826872e-01
 4.652460305660643947e+00 3.606004979901841239e+02 5.743357266858309940e-01
 4.660729698435305046e+00 3.599200666306571179e+02 5.734985844024731438e-01
 4.668999043186608411e+00 3.590702275517853650e+02 5.726902967491853680e-01
 4.677268339829351085e+00 3.590003854121720792e+02 5.721448731655267572e-01
 4.685537588278325671e+00 3.592342284050126295e+02 5.717774974061380355e-01
 4.693806788448326550e+00 3.587494707624779267e+02 5.708236721040949035e-01
 4.702075940254151654e+00 3.578051961524887474e+02 5.702500056342508783e-01
 4.710345043610593585e+00 3.569607194155553884e+02 5.689468285253109769e-01
 4.718614098432452941e+00 3.570989825536691455e+02 5.685095086987230761e-01
 4.726883104634524102e+00 3.571286248789135698e+02 5.686456989759739455e-01
 4.735152062131605000e+00 3.560139488054290382e+02 5.670040353246496023e-01
 4.743420970838495343e+00 3.554501973082937525e+02 5.660918422900045321e-01
 4.751689830669991288e+00 3.561875745293262412e+02 5.665191261407019896e-01
 4.759958641540894320e+00 3.549695794323355926e+02 5.650407787220582678e-01
 4.768227403366002370e+00 3.545796176665969597e+02 5.641122909828062415e-01
 4.776496116060116037e+00 3.544294311032534210e+02 5.547653742955804823e-01
 4.784764779538035917e+00 3.542203427058217358e+02 5.466638016770157815e-01
 4.793033393714563495e+00 3.537646277976739952e+02 5.489962786682880402e-01
 4.801301958504499368e+00 3.529723155517195892e+02 5.549657366954300342e-01
 4.809570473822646797e+00 3.526499532492455842e+02 5.548787147493108307e-01
 4.817838939583808155e+00 3.526204559704930261e+02 5.531827319924803588e-01
 4.826107355702786705e+00 3.516171274589821678e+02 5.529953735847700225e-01
 4.834375722094385708e+00 3.493655898349529139e+02 5.515218813028335276e-01
 4.842644038673408424e+00 3.509377142220774317e+02 5.545750219574350215e-01
 4.850912305354661669e+00 3.523656248660827259e+02 5.574605989319376675e-01
 4.859180522052949591e+00 3.530670044464758917e+02 5.574776416709049665e-01
 4.867448688683077229e+00 3.532649675297897147e+02 5.576492470044894789e-01
 4.875716805159852285e+00 3.542894370037528802e+02 5.583958140529150516e-01
 4.883984871398079797e+00 3.564264933803817712e+02 5.592474403847996767e-01
 4.892252887312568355e+00 3.610051268676970153e+02 5.629360732290612512e-01
 4.900520852818125661e+00 3.674533703652759868e+02 5.672571127115694223e-01
 4.908788767829559418e+00 3.737680240114020762e+02 5.713916517847860144e-01
 4.917056632261679106e+00 3.776082632354134603e+02 5.754673711249658208e-01
 4.925324446029293313e+00 3.772938037060480383e+02 5.742214028906710288e-01
 4.933592209047212407e+00 3.754077851348835111e+02 5.729408882755541166e-01
 4.941859921230246755e+00 3.712884760827895434e+02 5.697888083444450080e-01
 4.950127582493206724e+00 3.664856582350370786e+02 5.656280589172668627e-01
 4.958395192750905345e+00 3.606007104104319865e+02 5.619735719886767011e-01
 4.966662751918151208e+00 3.554124081519574361e+02 5.579466442133881321e-01
 4.974930259909760899e+00 3.521967222752305702e+02 5.559954324116022084e-01
 4.983197716640544783e+00 3.497280795482537314e+02 5.549575068198449035e-01
 4.991465122025318557e+00 3.494024015071510121e+02 5.548823201071616529e-01
 4.999732475978892587e+00 3.457468046297282740e+02 5.523066837881153157e-01
 5.007999778416085235e+00 3.452489265548225035e+02 5.525490902596853493e-01
 5.016267029251710419e+00 3.458560486813090620e+02 5.535090933351128895e-01
 5.024534228400582947e+00 3.446991140864506633e+02 5.529960148865048497e-01
 5.032801375777522068e+00 3.439823898479796185e+02 5.530651661982471934e-01
 5.041068471297339926e+00 3.434843138150422988e+02 5.528643696073659575e-01
 5.049335514874856656e+00 3.440624926687464153e+02 5.536220773474183066e-01
 5.057602506424888844e+00 3.427447661958280491e+02 5.536098724360123402e-01
 5.065869445862255738e+00 3.425579412766080054e+02 5.530418652428197301e-01
 5.074136333101776586e+00 3.420794332594906564e+02 5.537225348264067648e-01
 5.082403168058268861e+00 3.412649631248087871e+02 5.532799552337195337e-01
 5.090669950646555364e+00 3.414337648215578156e+02 5.536185557094477350e-01
 5.098936680781452679e+00 3.406848928336476092e+02 5.535237366936169856e-01
 5.107203358377787161e+00 3.403505338580789612e+02 5.537814601441983786e-01
 5.115469983350374505e+00 3.408249585038998930e+02 5.541204852427633609e-01
 5.123736555614041954e+00 3.403994385031242587e+02 5.545086784220081277e-01
 5.132003075083609644e+00 3.403938036608138873e+02 5.542538189992832764e-01
 5.140269541673899489e+00 3.386628556763665756e+02 5.533893067379475061e-01
 5.148535955299738731e+00 3.385479404398945462e+02 5.538120922091332998e-01
 5.156802315875949283e+00 3.395728109143596498e+02 5.552631438588649937e-01
 5.165068623317356611e+00 3.385495431252947469e+02 5.536410146772962060e-01
 5.173334877538784404e+00 3.378951002233313829e+02 5.545667859964722446e-01
 5.181601078455062570e+00 3.371415784159829059e+02 5.537748517160764328e-01
 5.189867225981013021e+00 3.375251338224775282e+02 5.540740188555473011e-01
 5.198133320031466553e+00 3.365257701956650749e+02 5.545154879424323280e-01
 5.206399360521248632e+00 3.360572039092028263e+02 5.534974992320732534e-01
 5.214665347365187387e+00 3.356781606710563892e+02 5.529175479389424330e-01
 5.222931280478113614e+00 3.363335912178709464e+02 5.540408268151270077e-01
 5.231197159774853667e+00 3.368100703845223052e+02 5.535339936149834550e-01
 5.239462985170238341e+00 3.363205631553313424e+02 5.530687164752208229e-01
 5.247728756579099318e+00 3.353338084727918726e+02 5.519431192429755662e-01
 5.255994473916265619e+00 3.343782659793100152e+02 5.503287366724790575e-01
 5.264260137096570702e+00 3.350394791922253148e+02 5.500791044673247754e-01
 5.272525746034846250e+00 3.341595917891075942e+02 5.487990015562665969e-01
 5.280791300645923059e+00 3.336601959968138544e+02 5.472339834002947212e-01
 5.289056800844635475e+00 3.338027368281956342e+02 5.462488728793072346e-01
 5.297322246545815183e+00 3.337391354313978695e+02 5.459376333152714533e-01
 5.305587637664300971e+00 3.338209483637890003e+02 5.448047170377838810e-01
 5.313852974114924521e+00 3.340234699942020598e+02 5.444256475126116879e-01
 5.322118255812521070e+00 3.335774128652636819e+02 5.445605617914490715e-01
 5.330383482671926743e+00 3.319482229115311043e+02 5.427317874010542109e-01
 5.338648654607981214e+00 3.320723013248077677e+02 5.436176528283418463e-01
 5.346913771535517057e+00 3.314244663622120584e+02 5.430569218877309146e-01
 5.355178833369373947e+00 3.317062361018875549e+02 5.436052512007998327e-01
 5.363443840024389786e+00 3.311584476956139156e+02 5.436558945151703792e-01
 5.371708791415403361e+00 3.310600171950013078e+02 5.431208391065528440e-01
 5.379973687457253462e+00 3.303567485232241552e+02 5.433157473891999656e-01
 5.388238528064782429e+00 3.305322631786917782e+02 5.433993655787555666e-01
 5.396503313152829051e+00 3.296307696078224012e+02 5.432040343191412157e-01
 5.404768042636234782e+00 3.298028133297780755e+02 5.431027464963674722e-01
 5.413032716429840185e+00 3.293718273747941225e+02 5.429147037281030208e-01
 5.421297334448488492e+00 3.291330524440579097e+02 5.434631084611616370e-01
 5.429561896607022042e+00 3.288371112365642261e+02 5.427015331520564922e-01
 5.437826402820284066e+00 3.286940014042093026e+02 5.435885237146255156e-01
 5.446090853003120458e+00 3.281835227364157959e+02 5.427547191920103486e-01
 5.454355247070373558e+00 3.280991455872353981e+02 5.429896506448613769e-01
 5.462619584936888373e+00 3.277146842999285354e+02 5.431444601804094052e-01
 5.470883866517512573e+00 3.273230585517805480e+02 5.428350994955898345e-01
 5.479148091727091163e+00 3.274303905320213630e+02 5.423598408775880397e-01
 5.487412260480470927e+00 3.267073463560566893e+02 5.430734492253260770e-01
 5.495676372692498646e+00 3.257801232280043564e+02 5.415084801262199932e-01
 5.503940428278023766e+00 3.261740578612714216e+02 5.426147282782214365e-01
 5.512204427151893071e+00 3.257292329075264092e+02 5.422751970669235089e-01
 5.520468369228957783e+00 3.258081718168409111e+02 5.428158400737681522e-01
 5.528732254424065573e+00 3.256576391364951064e+02 5.424298832336331699e-01
 5.536996082652068552e+00 3.257124725183991245e+02 5.427821350870151162e-01
 5.545259853827817942e+00 3.254719675540852108e+02 5.426277198015552194e-01
 5.553523567866164079e+00 3.242760097629983420e+02 5.421205126992871826e-01
 5.561787224681959074e+00 3.241094905225163529e+02 5.419045682535574837e-01
 5.570050824190056815e+00 3.236367575108554320e+02 5.416319247682368498e-01
 5.578314366305307637e+00 3.234186225378936683e+02 5.419100774236410567e-01
 5.586577850942568979e+00 3.235523254509200228e+02 5.421143836416463246e-01
 5.594841278016693842e+00 3.225682905556287210e+02 5.413815871266595137e-01
 5.603104647442536113e+00 3.226050706246780351e+02 5.414585765263982831e-01
 5.611367959134954120e+00 3.225699902823087655e+02 5.414291363991778905e-01
 5.619631213008801751e+00 3.218295989666893888e+02 5.413149590643053788e-01
 5.627894408978936447e+00 3.211996596160324771e+02 5.406926257064068597e-01
 5.636157546960216536e+00 3.218533444243009285e+02 5.416432409707588880e-01
 5.644420626867500346e+00 3.209506687217586318e+02 5.407137574949457681e-01
 5.652683648615644429e+00 3.200687104314007456e+02 5.404937088795899180e-01
 5.660946612119510668e+00 3.199005059094810690e+02 5.400283027290080362e-01
 5.669209517293956502e+00 3.200348237006344903e+02 5.408354469219037730e-01
 5.677472364053842924e+00 3.201390677536114708e+02 5.404760378932629283e-01
 5.685735152314031815e+00 3.201681409268405218e+02 5.411645182707449653e-01
 5.693997881989383281e+00 3.196303317939718340e+02 5.425897358765001677e-01
 5.702260552994761866e+00 3.217492719902344334e+02 5.593492129129808976e-01
 5.710523165245029453e+00 3.230116455390314059e+02 5.710961805560392790e-01
 5.718785718655049699e+00 3.237107080953101104e+02 5.784329790128004412e-01
 5.727048213139686261e+00 3.244709038144490023e+02 5.864115870691638532e-01
 5.735310648613802798e+00 3.248467424588952781e+02 5.916704709612193858e-01
 5.743573024992266518e+00 3.263896738785581420e+02 5.967020783363508052e-01
 5.751835342189942857e+00 3.262468478762460791e+02 6.018052334673156256e-01
 5.760097600121698136e+00 3.272804343619077372e+02 6.076254578413318175e-01
 5.768359798702397789e+00 3.283758213298407895e+02 6.136593328178140405e-01
 5.776621937846913468e+00 3.284021205584916174e+02 6.180404273400600390e-01
 5.784884017470109718e+00 3.283254521257118199e+02 6.225791148320005686e-01
 5.793146037486856414e+00 3.284249932508509460e+02 6.275073283514529532e-01
 5.801407997812024320e+00 3.289433849815644066e+02 6.316815206821144724e-01
 5.809669898360482421e+00 3.293575018781111794e+02 6.366078506357140121e-01
 5.817931739047102369e+00 3.294479079091659059e+02 6.415737989086619519e-01
 5.826193519786754038e+00 3.294035479071799841e+02 6.446847191273616939e-01
 5.834455240494312633e+00 3.292586535177733822e+02 6.430739561364798851e-01
 5.842716901084647141e+00 3.258469202878505939e+02 6.217404496002008063e-01
 5.850978501472633653e+00 3.243254223057799663e+02 6.116630654338188755e-01
 5.859240041573143820e+00 3.225599560179089735e+02 6.044433668108357693e-01
 5.867501521301053735e+00 3.226215570903896719e+02 6.010012471007031287e-01
 5.875762940571238602e+00 3.226491210382861254e+02 5.992057812403384087e-01
 5.884024299298572735e+00 3.245439257146974228e+02 5.993391728121734152e-01
 5.892285597397934005e+00 3.263113856738651748e+02 5.992717051653324578e-01
 5.900546834784197614e+00 3.269511204423693016e+02 5.974595328156516727e-01
 5.908808011372244096e+00 3.273412381723055091e+02 5.959481989503464527e-01
 5.917069127076950430e+00 3.267965306825907987e+02 5.952503663496463426e-01
 5.925330181813192709e+00 3.255737418659130071e+02 5.915358669831394245e-01
 5.933591175495853243e+00 3.235473340767053401e+02 5.888028636968133389e-01
 5.941852108039813452e+00 3.209314445817503270e+02 5.861038608508807313e-01
 5.950112979359951204e+00 3.186690452575859922e+02 5.830600107521040076e-01
 5.958373789371147922e+00 3.172839508290591652e+02 5.805541341911140130e-01
 5.966634537988290354e+00 3.149412368315099684e+02 5.781765857788194740e-01
 5.974895225126252818e+00 3.137161740103710486e+02 5.761344297222278366e-01
 5.983155850699928280e+00 3.132374411957903249e+02 5.747452730249548170e-01
 5.991416414624192832e+00 3.129228872228146656e+02 5.741728583758710647e-01
 5.999676916813934113e+00 3.122741374503800671e+02 5.725979192574895960e-01
 6.007937357184037097e+00 3.102287795219754116e+02 5.696552392019084143e-01
 6.016197735649389422e+00 3.102245180227894821e+02 5.696327066040602904e-01
 6.024458052124873397e+00 3.103161930654925982e+02 5.700150505435855885e-01
 6.032718306525381102e+00 3.096872631565800020e+02 5.679338874963142381e-01
 6.040978498765797511e+00 3.094461161338033435e+02 5.677496845494898192e-01
 6.049238628761010261e+00 3.092856824905863391e+02 5.676024893600221111e-01
 6.057498696425910545e+00 3.083619407429053467e+02 5.661280003813660144e-01
 6.065758701675386000e+00 3.088454744079992906e+02 5.657820438524165940e-01
 6.074018644424329594e+00 3.081332494310154857e+02 5.657710402143414363e-01
 6.082278524587628965e+00 3.076978496182110803e+02 5.649495090183916934e-01
 6.090538342080177969e+00 3.076766871417450488e+02 5.636343889990281797e-01
 6.098798096816868686e+00 3.066600660586480558e+02 5.636854563278922425e-01
 6.107057788712593194e+00 3.063850808684324534e+02 5.624500949522123205e-01
 6.115317417682245349e+00 3.055517517210072924e+02 5.615216363163095803e-01
 6.123576983640720783e+00 3.059094487921157679e+02 5.617234299461847380e-01
 6.131836486502913353e+00 3.057746572385862578e+02 5.615996614315643676e-01
 6.140095926183716024e+00 3.055576572250456593e+02 5.608763099778004690e-01
 6.148355302598028871e+00 3.047430422168665132e+02 5.600020601756240390e-01
 6.156614615660746637e+00 3.037436146459357929e+02 5.594609690779318578e-01
 6.164873865286767618e+00 3.043358142883860182e+02 5.591245397389114080e-01
 6.173133051390989223e+00 3.042359305418798954e+02 5.591404822695791310e-01
 6.181392173888310637e+00 3.032147700606494141e+02 5.585063067971847151e-01
 6.189651232693631044e+00 3.034596066789932820e+02 5.572824710304810081e-01
 6.197910227721851406e+00 3.028130031793699573e+02 5.560131206006854176e-01
 6.206169158887870907e+00 3.028636880674972645e+02 5.556697698714330169e-01
 6.214428026106592284e+00 3.027365659120520149e+02 5.548112490076894110e-01
 6.222686829292916499e+00 3.017158132754523194e+02 5.527871932290514545e-01
 6.230945568361746290e+00 3.019065252481445896e+02 5.521585790680239025e-01
 6.239204243227987945e+00 3.013548311361902847e+02 5.516016307715153610e-01
 6.247462853806540650e+00 3.016830140255070205e+02 5.510159548405776375e-01
 6.255721400012311584e+00 3.007680505283281036e+02 5.496958852605117185e-01
 6.263979881760207036e+00 2.993652070738151565e+02 5.478451434672878539e-01
 6.272238298965132408e+00 3.000028887834251918e+02 5.476054189988436294e-01
 6.280496651541993991e+00 3.012528944316714501e+02 5.483683629029161288e-01
 6.288754939405697186e+00 2.994183730051471457e+02 5.475679319822638336e-01
 6.297013162471155390e+00 2.994600521646684683e+02 5.463763856590985180e-01
 6.305271320653272227e+00 2.990484138921319754e+02 5.463753228355719971e-01
 6.313529413866957540e+00 2.992857092665578875e+02 5.465920546775664413e-01
 6.321787442027124726e+00 2.994426668515780534e+02 5.469230720146639468e-01
 6.330045405048680962e+00 2.990138083386437415e+02 5.458331231427190344e-01
 6.338303302846540532e+00 2.990132211281872969e+02 5.461047211079064212e-01
 6.346561135335611503e+00 2.979869125469069786e+02 5.455409186573405567e-01
 6.354818902430810823e+00 2.978319631129330674e+02 5.445160450875831115e-01
 6.363076604047049223e+00 2.973500389279328147e+02 5.442446648237124762e-01
 6.371334240099242763e+00 2.968249583566398542e+02 5.438485756126236748e-01
 6.379591810502303950e+00 2.967430698449612692e+02 5.431987557909130349e-01
 6.387849315171150621e+00 2.967733914416027119e+02 5.433784896402402698e-01
 6.396106754020697061e+00 2.966915525992439484e+02 5.440313643702321400e-01
 6.404364126965859327e+00 2.967821009674283914e+02 5.434878567895142787e-01
 6.412621433921558811e+00 2.961659383884763770e+02 5.428052195073462816e-01
 6.420878674802708908e+00 2.962697937705632967e+02 5.430861370770566632e-01
 6.429135849524230117e+00 2.960888383406850153e+02 5.429878325055970123e-01
 6.437392958001042054e+00 2.959333773714021163e+02 5.425583279191570352e-01
 6.445650000148066994e+00 2.960353430556587000e+02 5.427699071353454530e-01
 6.453906975880223662e+00 2.950727569898988349e+02 5.422409906006271374e-01
 6.462163885112431672e+00 2.950366652429987653e+02 5.413656017086356798e-01
 6.470420727759617741e+00 2.952086736309224761e+02 5.419946884513898722e-01
 6.478677503736701482e+00 2.936690970580818885e+02 5.405123037589305568e-01
 6.486934212958606949e+00 2.944616369538665026e+02 5.412243407975475540e-01
 6.495190855340259972e+00 2.941478261709691537e+02 5.408518095459107222e-01
 6.503447430796584605e+00 2.931200055274239276e+02 5.397551066268425624e-01
 6.511703939242505790e+00 2.932729927193313983e+02 5.401308643546780530e-01
 6.519960380592949356e+00 2.924734545008198552e+02 5.386912123383825746e-01
 6.528216754762845575e+00 2.921283806043817322e+02 5.388915533051884532e-01
 6.536473061667119389e+00 2.920088347864225966e+02 5.386976102747249584e-01
 6.544729301220701956e+00 2.922135071068501588e+02 5.385686715871177421e-01
 6.552985473338516442e+00 2.928511969618916737e+02 5.393233237014481984e-01
 6.561241577935499336e+00 2.922365744199657343e+02 5.391085837399771652e-01
 6.569497614926577356e+00 2.910511680397664804e+02 5.379806341768276212e-01
 6.577753584226685213e+00 2.921603816624926822e+02 5.385531246333641331e-01
 6.586009485750750514e+00 2.919638870878804369e+02 5.384388106794552042e-01
 6.594265319413707971e+00 2.910576010938917193e+02 5.382542679167419131e-01
 6.602521085130489631e+00 2.907816647812923065e+02 5.375477837423062732e-01
 6.610776782816031982e+00 2.905416125091006734e+02 5.371924148913254093e-01
 6.619032412385268849e+00 2.913397719014451468e+02 5.375461708944064831e-01
 6.627287973753134942e+00 2.907387700335642080e+02 5.366422591360652250e-01
 6.635543466834564974e+00 2.893121602055592234e+02 5.344809345253372923e-01
 6.643798891544499874e+00 2.891834356169637203e+02 5.335066689037054610e-01
 6.652054247797872577e+00 2.897295438829609679e+02 5.334362324718548987e-01
 6.660309535509624013e+00 2.893141949738372318e+02 5.316685214321180686e-01
 6.668564754594691557e+00 2.891771094921821259e+02 5.314938652434616495e-01
 6.676819904968016139e+00 2.893428099964718854e+02 5.310466420748175542e-01
 6.685074986544538689e+00 2.904105774776994053e+02 5.317179875009087064e-01
 6.693329999239199246e+00 2.890772278383121829e+02 5.300285375069270222e-01
 6.701584942966939629e+00 2.890321042734467483e+02 5.295049672950677966e-01
 6.709839817642700766e+00 2.883344663305647941e+02 5.282254287916994251e-01
 6.718094623181430691e+00 2.884056635478073076e+02 5.270647777273971268e-01
 6.726349359498069447e+00 2.885792231968516717e+02 5.272233450355895412e-01
 6.734604026507560626e+00 2.890588763622723718e+02 5.274549607986444011e-01
 6.742858624124851374e+00 2.886085309817345319e+02 5.268221343373652443e-01
 6.751113152264888839e+00 2.879968612743504082e+02 5.264851227524328658e-01
 6.759367610842618390e+00 2.872100769149579378e+02 5.253390296452988828e-01
 6.767621999772987174e+00 2.876733611386973166e+02 5.261576959242746376e-01
 6.775876318970943224e+00 2.882525343395944333e+02 5.261651678575741675e-01
 6.784130568351436352e+00 2.876443254127147497e+02 5.255939992208938927e-01
 6.792384747829416369e+00 2.871024322388827841e+02 5.254299402794661011e-01
 6.800638857319833974e+00 2.869759798107758115e+02 5.251406605202805222e-01
 6.808892896737638978e+00 2.866396158203635309e+02 5.249747163481957024e-01
 6.817146865997782967e+00 2.862137831430048323e+02 5.248369903917723400e-01
 6.825400765015219307e+00 2.865221528257733894e+02 5.249144570639927565e-01
 6.833654593704901359e+00 2.867686773698831644e+02 5.255826638496760017e-01
 6.841908351981782488e+00 2.863871278719859106e+02 5.247434520987451778e-01
 6.850162039760818722e+00 2.860923403209042135e+02 5.244575570885267046e-01
 6.858415656956963424e+00 2.858619423792958969e+02 5.247194954301441783e-01
 6.866669203485176176e+00 2.874217962202859553e+02 5.261016551211279424e-01
 6.874922679260408565e+00 2.889425804256939614e+02 5.274123014004680199e-01
 6.883176084197621947e+00 2.916364859203400215e+02 5.300725647220242420e-01
 6.891429418211774127e+00 2.925993543000291197e+02 5.308510008430211702e-01
 6.899682681217825575e+00 2.930905280799604498e+02 5.315524032668580423e-01
 6.907935873130730542e+00 2.930294329083037610e+02 5.308417273046853735e-01
 6.916188993865456602e+00 2.935338190359868236e+02 5.315060799813962067e-01
 6.924442043336959784e+00 2.921695706836543422e+02 5.301897872643823728e-01
 6.932695021460205886e+00 2.897158697028066285e+02 5.281334682645625334e-01
 6.940947928150156265e+00 2.881563720097547616e+02 5.267418141813021704e-01
 6.949200763321772278e+00 2.872462722934996009e+02 5.263847147767146684e-01
 6.957453526890020612e+00 2.857180295686090403e+02 5.245400359923703126e-01
 6.965706218769864400e+00 2.847139778517790774e+02 5.236175726243601503e-01
 6.973958838876272104e+00 2.839350605543530150e+02 5.230110139999659680e-01
 6.982211387124209523e+00 2.838523980886329809e+02 5.229033918609005127e-01
 6.990463863428638902e+00 2.832195702239681623e+02 5.227294596744540556e-01
 6.998716267704534921e+00 2.823113957149432167e+02 5.220166158420592728e-01
 7.006968599866861602e+00 2.827564012848159223e+02 5.221759248699667788e-01
 7.015220859830590072e+00 2.827729991573865505e+02 5.219553669628792525e-01
 7.023473047510691458e+00 2.820412151078907073e+02 5.219242206025377362e-01
 7.031725162822137776e+00 2.821588811452843970e+02 5.211843230331130172e-01
 7.039977205679895711e+00 2.826429443923371423e+02 5.219296160226251091e-01
 7.048229175998940832e+00 2.813739261023621339e+02 5.209135265608362264e-01
 7.056481073694244266e+00 2.811279936163258526e+02 5.205917014124554765e-01
 7.064732898680784245e+00 2.820210078479155413e+02 5.215278781054261126e-01
 7.072984650873531010e+00 2.811081010627401611e+02 5.208872214178791316e-01
 7.081236330187461903e+00 2.804313217747420026e+02 5.202284332864541838e-01
 7.089487936537552493e+00 2.805534977404993811e+02 5.202319305239895275e-01
 7.097739469838779236e+00 2.807934729897961006e+02 5.206741698103487526e-01
 7.105990930006122142e+00 2.806418449699083908e+02 5.201257135478247751e-01
 7.114242316954555889e+00 2.808311103369500188e+02 5.208662402422326032e-01
 7.122493630599062264e+00 2.791939074784415311e+02 5.183451886646162077e-01
 7.130744870854620387e+00 2.798087000580106292e+02 5.193218006073251347e-01
 7.138996037636211156e+00 2.798326010363035152e+02 5.197511736645663571e-01
 7.147247130858814579e+00 2.802645632460552747e+02 5.196664097985000952e-01
 7.155498150437414218e+00 2.793090646883729846e+02 5.191707823707231162e-01
 7.163749096286993634e+00 2.792554207084320410e+02 5.191522370177766854e-01
 7.171999968322535501e+00 2.790939679813608336e+02 5.190021402663228534e-01
 7.180250766459023382e+00 2.787861286202648898e+02 5.191073933482424074e-01
 7.188501490611443501e+00 2.786206254298991780e+02 5.187652808875073962e-01
 7.196752140694782973e+00 2.782370272476434252e+02 5.184080461003021112e-01
 7.205002716624025361e+00 2.783290206794795267e+02 5.185250429649771453e-01
 7.213253218314160442e+00 2.778320774217631310e+02 5.178587460968847589e-01
 7.221503645680177996e+00 2.778073711378891630e+02 5.172431771284345947e-01
 7.229753998637063361e+00 2.771654342336255468e+02 5.173463343157190808e-01
 7.238004277099808981e+00 2.772050162062538448e+02 5.171960199134338909e-01
 7.246254480983402857e+00 2.762576094503594391e+02 5.164360501378285617e-01
 7.254504610202840986e+00 2.771778969444150675e+02 5.174204256089492970e-01
 7.262754664673108707e+00 2.767455160094151552e+02 5.169386848277977009e-01
 7.271004644309205567e+00 2.761522838434953542e+02 5.167274759042318477e-01
 7.279254549026121346e+00 2.766957846635849023e+02 5.174703014574100202e-01
 7.287504378738851152e+00 2.760954575428343105e+02 5.164402957194247357e-01
 7.295754133362390093e+00 2.761420454321185503e+02 5.164838655207234508e-01
 7.304003812811734164e+00 2.757300907893768454e+02 5.160828917069967270e-01
 7.312253417001880251e+00 2.757229900016435522e+02 5.162165078116520700e-01
 7.320502945847825238e+00 2.747994576494899661e+02 5.148228605606521846e-01
 7.328752399264569561e+00 2.751373983487870873e+02 5.156368897201406565e-01
 7.337001777167110106e+00 2.748312549738287203e+02 5.152099281321673718e-01
 7.345251079470447308e+00 2.742697490639366151e+02 5.149943161981165307e-01
 7.353500306089581606e+00 2.731824966629098412e+02 5.137552347375184958e-01
 7.361749456939515213e+00 2.742312188785056719e+02 5.149270210064127440e-01
 7.369998531935250341e+00 2.744152239053902349e+02 5.151308766190491051e-01
 7.378247530991788317e+00 2.732991142595081442e+02 5.138183409115628653e-01
 7.386496454024133129e+00 2.732979038885350747e+02 5.141121658170875186e-01
 7.394745300947291433e+00 2.733004015101223558e+02 5.143633001679394079e-01
 7.402994071676267218e+00 2.731464422685970135e+02 5.142806359553239171e-01
 7.411242766126065362e+00 2.719937660671158710e+02 5.121570848652922114e-01
 7.419491384211693408e+00 2.736888090719306206e+02 5.173805939177704705e-01
 7.427739925848160674e+00 2.760033970886502743e+02 5.368755780388265730e-01
 7.435988390950475591e+00 2.766111359728619732e+02 5.477707163270754132e-01
 7.444236779433643036e+00 2.775145689161348628e+02 5.570162873207462617e-01
 7.452485091212677659e+00 2.783932803776520473e+02 5.634566774588318783e-01
 7.460733326202588778e+00 2.791573316293935250e+02 5.692625743460878462e-01
 7.468981484318389263e+00 2.791240071245994727e+02 5.751214097086954080e-01
 7.477229565475089323e+00 2.793930584995052868e+02 5.808444689036871278e-01
 7.485477569587701829e+00 2.798732833195184071e+02 5.866359657492073998e-01
 7.493725496571243205e+00 2.804379074581357827e+02 5.914930735757796265e-01
 7.501973346340727211e+00 2.805836256419797792e+02 5.965272844286543252e-01
 7.510221118811169383e+00 2.808906701774121757e+02 6.019324680837477848e-01
 7.518468813897585257e+00 2.816441841603594298e+02 6.076580920341886349e-01
 7.526716431514993033e+00 2.821847256930589651e+02 6.126238902025950006e-01
 7.534963971578410913e+00 2.812741191606360758e+02 6.176975878293429201e-01
 7.543211434002856208e+00 2.825266544141167628e+02 6.240917212490565413e-01
 7.551458818703349785e+00 2.821281180111154185e+02 6.282971543993409735e-01
 7.559706125594912507e+00 2.833622500980475252e+02 6.351083636605069360e-01
 7.567953354592562576e+00 2.833456451083314960e+02 6.403816649262411564e-01
 7.576200505611324409e+00 2.831519394637932123e+02 6.449349985481083181e-01
 7.584447578566222425e+00 2.831249427586328693e+02 6.493611008907911319e-01
 7.592694573372278377e+00 2.843088721083258861e+02 6.558348285985684534e-01
 7.600941489944513130e+00 2.837378272206481711e+02 6.600620307273439291e-01
 7.609188328197959095e+00 2.843206888244985180e+02 6.661964129324738915e-01
 7.617435088047636249e+00 2.845248352448299443e+02 6.711667523141778835e-01
 7.625681769408572563e+00 2.849142815972526250e+02 6.773812407352705067e-01
 7.633928372195798673e+00 2.843012303633337865e+02 6.816794417876664847e-01
 7.642174896324338995e+00 2.843106325121270288e+02 6.862272800882156520e-01
 7.650421341709225942e+00 2.859335868547029804e+02 6.931884133610026755e-01
 7.658667708265489260e+00 2.848656396514298308e+02 6.971478801648841594e-01
 7.666913995908159585e+00 2.851982184978147075e+02 7.027064023074300891e-01
 7.675160204552264887e+00 2.854498713711086566e+02 7.094561040864294510e-01
 7.683406334112842018e+00 2.852344645376509789e+02 7.135264342692451134e-01
 7.691652384504922502e+00 2.860379185254841445e+02 7.201766663048086992e-01
 7.699898355643542303e+00 2.861615446413311474e+02 7.253641501620415877e-01
 7.708144247443733832e+00 2.859353244760473558e+02 7.310667209102862385e-01
 7.716390059820534830e+00 2.865378835218541553e+02 7.367590464560908048e-01
 7.724635792688979485e+00 2.868589724642699821e+02 7.431347489756892077e-01
 7.732881445964106426e+00 2.863085242441437686e+02 7.487088239577750493e-01
 7.741127019560956946e+00 2.851715190336663568e+02 7.521611190309261952e-01
 7.749372513394563455e+00 2.857554423161318482e+02 7.592648095010585685e-01
 7.757617927379974354e+00 2.852835210346855774e+02 7.646876229655821255e-01
 7.765863261432221165e+00 2.863283766063556186e+02 7.713417240665344510e-01
 7.774108515466351399e+00 2.863982148006975876e+02 7.771081854503482100e-01
 7.782353689397406349e+00 2.858539987840328536e+02 7.827394472427352534e-01
 7.790598783140427308e+00 2.863764176441763425e+02 7.898821202753405490e-01
 7.798843796610460011e+00 2.862071794340936322e+02 7.964558972424776728e-01
 7.807088729722550191e+00 2.866721653361040012e+02 8.029071077435839809e-01
 7.815333582391739142e+00 2.861084886606370219e+02 8.095471677622064766e-01
 7.823578354533077928e+00 2.857073078883929043e+02 8.138880128532461899e-01
 7.831823046061612281e+00 2.866225431367449232e+02 8.226146148188042684e-01
 7.840067656892390602e+00 2.851704816983036608e+02 8.268356143934394442e-01
 7.848312186940460400e+00 2.854305793316016775e+02 8.353886982084330892e-01
 7.856556636120872739e+00 2.836797013287504114e+02 8.393248009963686362e-01
 7.864801004348677793e+00 2.839522824746764513e+02 8.468555999680751345e-01
 7.873045291538926627e+00 2.829372948291683656e+02 8.532567467009677387e-01
 7.881289497606673855e+00 2.812257929055759860e+02 8.551535614153564779e-01
 7.889533622466968765e+00 2.823879715904537875e+02 8.675587944208670299e-01
 7.897777666034869526e+00 2.812086517279131499e+02 8.711312736956238201e-01
 7.906021628225427200e+00 2.801428241246844664e+02 8.785648615471723932e-01
 7.914265508953699957e+00 2.779169810210784135e+02 8.837080306556289733e-01
 7.922509308134742412e+00 2.751070361255144689e+02 8.872910364114205972e-01
 7.930753025683612734e+00 2.728927585519292052e+02 8.909937390690002568e-01
 7.938996661515369091e+00 2.685056760438784522e+02 8.912062756476494263e-01
 7.947240215545071429e+00 2.672306010872088109e+02 9.009075000949241518e-01
 7.955483687687778804e+00 2.660222408914618200e+02 9.106119241586441149e-01
 7.963727077858549386e+00 2.647202995127135523e+02 9.192805742441451100e-01
 7.971970385972447559e+00 2.632098207440248530e+02 9.287784892857133823e-01
 7.980213611944536822e+00 2.619696410697453075e+02 9.401663412856051671e-01
 7.988456755689878008e+00 2.612603541283691015e+02 9.542081037266343380e-01
 7.996699817123536391e+00 2.597405050480576278e+02 9.660586290795093456e-01
 8.004942796160575469e+00 2.581898292728005231e+02 9.793594553258773150e-01
 8.013185692716065844e+00 2.577082803663383288e+02 9.935550616290609316e-01
 8.021428506705065686e+00 2.563923897063980917e+02 1.010307445009559491e+00
 8.029671238042649151e+00 2.553336446188523610e+02 1.026252253358295841e+00
 8.037913886643879735e+00 2.552150343297274731e+02 1.045465449307036776e+00
 8.046156452423831595e+00 2.530149963400634761e+02 1.061757702298741668e+00
 8.054398935297573559e+00 2.519129970084442789e+02 1.080719030440939088e+00
 8.062641335180172675e+00 2.491303601439164765e+02 1.098547986464745829e+00
 8.070883651986704876e+00 2.480113745143174526e+02 1.120426941073994653e+00
 8.079125885632242543e+00 2.445286236133119075e+02 1.136327530557962540e+00
 8.087368036031856278e+00 2.427871311639175360e+02 1.158373300878198897e+00
 8.095610103100622013e+00 2.404030493735619984e+02 1.182455163826139577e+00
 8.103852086753613904e+00 2.385745087663129596e+02 1.213541162416205355e+00
 8.112093986905911436e+00 2.347469152202039595e+02 1.238919115022836026e+00
 8.120335803472586989e+00 2.342819372708109995e+02 1.283626558328108125e+00
 8.128577536368721823e+00 2.259028668107087867e+02 1.277997945162918425e+00
 8.136819185509391872e+00 2.209636593683340493e+02 1.295045761591974154e+00
 8.145060750809676620e+00 2.184930395194789696e+02 1.322098451763646931e+00
 8.153302232184660880e+00 2.181299498863053827e+02 1.359977399002657128e+00
 8.161543629549418810e+00 2.116857338276078053e+02 1.377098671473910629e+00
 8.169784942819036999e+00 2.058100758556223582e+02 1.390547996611686044e+00
 8.178026171908598485e+00 1.997874704493134175e+02 1.401684719752920083e+00
 8.186267316733186306e+00 1.913960813697933077e+02 1.420334468096386082e+00
 8.194508377207883498e+00 1.837123380749532657e+02 1.445380212334603565e+00
 8.202749353247778430e+00 1.730846999042205425e+02 1.459545555846204712e+00
 8.210990244767955915e+00 1.673404151200294621e+02 1.502512410243133312e+00
 8.219231051683504319e+00 1.511985667906908759e+02 1.470343430015721431e+00
 8.227471773909506680e+00 1.399823379296779251e+02 1.489879105542678994e+00
 8.235712411361060248e+00 1.277537619250318670e+02 1.508720084260464001e+00
 8.243952963953249835e+00 1.158600494644736614e+02 1.539655187520835522e+00
 8.252193431601167362e+00 1.033631446205707789e+02 1.558365381938954908e+00
 8.260433814219904747e+00 8.758478120792514687e+01 1.535964200690464576e+00
 8.268674111724552134e+00 7.387257362149092899e+01 1.551532438666996194e+00
 8.276914324030206771e+00 6.448148425742277823e+01 1.665351966511064763e+00
 8.285154451051958802e+00 4.721922880131096179e+01 1.645573688049002170e+00
 8.293394492704907250e+00 3.461495659529513347e+01 1.843308750713894550e+00
 8.301634448904145813e+00 2.344659965620373754e+01 2.500485267900545594e+00
 8.309874319564773515e+00 0.000000000000000000e+00 0.000000000000000000e+00
 8.318114104601885828e+00 0.000000000000000000e+00 0.000000000000000000e+00
 8.326353803930581776e+00 0.000000000000000000e+00 0.000000000000000000e+00
 8.334593417465962162e+00 0.000000000000000000e+00 0.000000000000000000e+00
 8.342832945123126009e+00 0.000000000000000000e+00 0.000000000000000000e+00
 8.351072386817175897e+00 0.000000000000000000e+00 0.000000000000000000e+00
 8.359311742463214401e+00 0.000000000000000000e+00 0.000000000000000000e+00
 8.367551011976344100e+00 0.000000000000000000e+00 0.000000000000000000e+00
 8.375790195271665795e+00 0.000000000000000000e+00 0.000000000000000000e+00
 8.384029292264289168e+00 0.000000000000000000e+00 0.000000000000000000e+00
 8.392268302869316798e+00 0.000000000000000000e+00 0.000000000000000000e+00
 8.400507227001856592e+00 0.000000000000000000e+00 0.000000000000000000e+00
 8.408746064577018231e+00 0.000000000000000000e+00 0.000000000000000000e+00
 8.416984815509906070e+00 0.000000000000000000e+00 0.000000000000000000e+00
 8.425223479715629793e+00 0.000000000000000000e+00 0.000000000000000000e+00
 8.433462057109304411e+00 0.000000000000000000e+00 0.000000000000000000e+00
 8.441700547606037830e+00 0.000000000000000000e+00 0.000000000000000000e+00
 8.449938951120937958e+00 0.000000000000000000e+00 0.000000000000000000e+00
 8.458177267569125135e+00 0.000000000000000000e+00 0.000000000000000000e+00
 8.466415496865709045e+00 0.000000000000000000e+00 0.000000000000000000e+00
 8.474653638925804700e+00 0.000000000000000000e+00 0.000000000000000000e+00
 8.482891693664528887e+00 0.000000000000000000e+00 0.000000000000000000e+00
 8.491129660996996620e+00 0.000000000000000000e+00 0.000000000000000000e+00
 8.499367540838324686e+00 0.000000000000000000e+00 0.000000000000000000e+00
 8.507605333103635203e+00 0.000000000000000000e+00 0.000000000000000000e+00
 8.515843037708043184e+00 0.000000000000000000e+00 0.000000000000000000e+00
 8.524080654566670745e+00 0.000000000000000000e+00 0.000000000000000000e+00
 8.532318183594640004e+00 0.000000000000000000e+00 0.000000000000000000e+00
 8.540555624707069526e+00 0.000000000000000000e+00 0.000000000000000000e+00
 8.548792977819084982e+00 0.000000000000000000e+00 0.000000000000000000e+00
 8.557030242845808488e+00 0.000000000000000000e+00 0.000000000000000000e+00
 8.565267419702367491e+00 0.000000000000000000e+00 0.000000000000000000e+00
 8.573504508303882332e+00 0.000000000000000000e+00 0.000000000000000000e+00
 8.581741508565485788e+00 0.000000000000000000e+00 0.000000000000000000e+00
 8.589978420402299975e+00 0.000000000000000000e+00 0.000000000000000000e+00
 8.598215243729457669e+00 0.000000000000000000e+00 0.000000000000000000e+00
 8.606451978462082764e+00 0.000000000000000000e+00 0.000000000000000000e+00
 8.614688624515306259e+00 0.000000000000000000e+00 0.000000000000000000e+00
 8.622925181804266259e+00 0.000000000000000000e+00 0.000000000000000000e+00
 8.631161650244084882e+00 0.000000000000000000e+00 0.000000000000000000e+00
 8.639398029749903785e+00 0.000000000000000000e+00 0.000000000000000000e+00
 8.647634320236852190e+00 0.000000000000000000e+00 0.000000000000000000e+00
 8.655870521620062874e+00 0.000000000000000000e+00 0.000000000000000000e+00
 8.664106633814675718e+00 0.000000000000000000e+00 0.000000000000000000e+00
 8.672342656735823496e+00 0.000000000000000000e+00 0.000000000000000000e+00
 8.680578590298647867e+00 0.000000000000000000e+00 0.000000000000000000e+00
 8.688814434418281607e+00 0.000000000000000000e+00 0.000000000000000000e+00
 8.697050189009869925e+00 0.000000000000000000e+00 0.000000000000000000e+00
 8.705285853988547373e+00 0.000000000000000000e+00 0.000000000000000000e+00
 8.713521429269460938e+00 0.000000000000000000e+00 0.000000000000000000e+00
 8.721756914767748725e+00 0.000000000000000000e+00 0.000000000000000000e+00
 8.729992310398554167e+00 0.000000000000000000e+00 0.000000000000000000e+00
 8.738227616077020699e+00 0.000000000000000000e+00 0.000000000000000000e+00
 8.746462831718295305e+00 0.000000000000000000e+00 0.000000000000000000e+00
 8.754697957237523198e+00 0.000000000000000000e+00 0.000000000000000000e+00
 8.762932992549849587e+00 0.000000000000000000e+00 0.000000000000000000e+00
 8.771167937570423234e+00 0.000000000000000000e+00 0.000000000000000000e+00
 8.779402792214391127e+00 0.000000000000000000e+00 0.000000000000000000e+00
 